-0.005046378918755444
-0.005418613136145813
-0.006679844583309176
-0.02167703052258465
-0.020943332541078913
0.029999420609509213
0.05565941789759957
0.02285984426445961
0.005719531019970817
0.024861997434525107
0.0514553814317871
0.0576146437162906
0.05581615281346501
0.06149793264636656
0.06981810425079989
0.08470036794739488
0.0695359016817092
0.048985405505050844
0.05163976339625924
0.04683035256156744
0.0544603196302777
0.05458258787312743
0.03347786959704516
0.022212137082261788
0.00651280113084593
-0.0072631845624423624
-0.05673494690072304
-0.19232995023074956
-0.34494795828921787
-0.4487911097670291
-0.5481046426644256
-0.6259295932202864
-0.5616333829374586
-0.36428678075335313
-0.17866762789671842
-0.04069478605263133
0.06645466738953754
0.10477300042466249
0.10249143929454878
0.08488139470895541
0.060484552026360786
0.06165626172701069
0.07747603484798499
0.06807280818327478
0.0490092577752487
0.05918855903523254
0.08100854344532447
0.1089372282520712
0.11135101125385702
0.07275058917475119
0.057770334035899096
0.07611615282681189
0.08525294254359744
0.07406103789082355
0.047752974788677585
0.025985497323467666
0.02690887678652537
0.009869132770241332
-0.00522586515263572
0.005146816150649811
-0.005931474670112957
-0.0028597932371248053
0.044271062181727314
0.0592086711355096
0.05196953453188106
0.06205862126438863
0.03618967546658287
0.026403798211180246
0.03869454405662283
0.0306211591574677
0.02674560160500275
0.0018831322415240673
-0.009104115179834456
0.0004304920355250666
-0.0007518253261557598
0.006625593240052019
0.009387015785264553
-0.003765240735895972
0.00949852258130579
0.007906710973337921
-0.020501327439848796
-0.006743096663458258
0.008948217587990956
-0.022918284129714098
-0.03811282486041262
0.026721290360112004
0.04786726699602864
0.02319405005814064
0.02961195624566855
0.05274479433910116
0.11519165008304748
0.21346060260087782
0.2905977833359552
0.2885824207710159
0.2276217892029621
0.10778537995219403
0.015816057254638805
-0.009310543372050506
-0.020962890697869302
0.0282392140144479
0.059805445953196396
0.025442612633767625
0.02568491189579815
0.010914472205407505
-0.0032975338353765232
0.04706153952571522
0.05750187775823398
0.024232246609639296
-0.0015343197457365204
-0.016987688163008108
-0.0003116472560448502
0.022836681028091665
-0.0020882867927875526
-0.0032085971725986373
0.008008974512658931
-0.025014900741320054
-0.024032889500969656
-0.0148719391571552
0.0022672711450294064
0.022900296210583662
-0.012161601889053714
-0.025317292567605634
0.024556435777234167
0.05258477418339437
0.039190407105883895
0.05260633286936027
0.03239520699382042
0.00382872824575433
0.04670550447343709
0.06794251848508234
0.051195599668038036
0.029711523963135887
0.04874665077367682
0.0676526457971229
0.014465048160269497
-0.019306835815685756
0.016098488154465053
0.017481659454813732
-0.0027101335306129125
0.04180765028289623
0.08042374119224732
0.08230103216283403
0.08492412004643744
0.11117592982506722
0.11569025648966144
0.12180943895856472
0.15188791593749895
0.12720991879342636
0.1113151758586235
0.12480732876255292
0.12738969203121633
0.10942919464124426
0.09560479359720997
0.10815122124454625
0.0881811366101744
0.05415134728443054
0.055620242723500295
0.05602146528393728
0.028044603521276287
0.005557188531460033
-0.00550248886560184
-0.04020795468043725
-0.1406854035081107
-0.2903483464793109
-0.41903250787112734
-0.5684979759073182
-0.6863798069463536
-0.6370587854975135
-0.4485596702646262
-0.23321048622754142
-0.09814409481322633
-0.0028568337253790654
0.07007652487031558
0.0781512137763762
0.05831330758675403
0.04849368161591529
0.03413512807440666
0.04515394083275916
0.08347202859914747
0.06336918083801116
0.04199049898614282
0.04422125007694769
0.05465159934136852
0.07041720999696484
0.06439931501493441
0.04541828045768732
0.03986256057836142
0.04742861432112377
0.0315688585418752
0.02572885523961487
0.009865819824125571
-0.005994299385574109
0.012581447869180695
0.009352108296922075
-0.016806109858397145
-0.02102477697478981
-0.009785183167843228
-0.0026775108576814408
-0.01378230490452213
-0.02657153242684511
-0.014804703767484629
-0.03224871491084091
-0.056068289148547376
-0.047441595341608654
-0.06023427779238706
-0.08400939028441282
-0.08846494639322418
-0.10359181814971732
-0.11990517685145838
-0.11397457491290822
-0.11223780562279272
-0.12190318709411603
-0.1053183637762001
-0.08412257540493047
-0.08962866576527724
-0.09269418278411373
-0.0894361651537067
-0.08301028227601594
-0.06837637224954742
-0.05435236322852363
-0.04737083377068474
-0.04180631441315779
-0.05468903340571954
-0.038053307956238916
0.030366064566288615
0.11242664427928457
0.1826571872145829
0.2253971511823043
0.256467189488413
0.19158379548933127
0.05159908012951171
-0.056431077469967623
-0.10587995579878018
-0.08840405957114511
-0.053800198236502644
-0.017879094554104996
0.016929319890085635
0.016331475543871633
0.014483598934377014
0.024834742078581037
0.006581722487476661
0.0005116041322610204
0.021925807467841403
0.014824101403414093
-0.017120529050007806
-0.02343276192684797
-0.031092411329937356
-0.046959759403751744
-0.052992977532431706
-0.06220703604355508
-0.06429405263474748
-0.0836759942106923
-0.09335706597183178
-0.10371501006004902
-0.13710180853088255
-0.13487034256408664
-0.12575005504524078
-0.1280035397023382
-0.11848577229906092
-0.1013842941354212
-0.07921212220077752
-0.0740494665247448
-0.05880409323297695
-0.02788540189287199
-0.003779045413850395
0.03974049261187776
0.058184109668592034
0.05457671935069316
0.06808754886945562
0.06995742466949655
0.058387890920889585
0.05450301543665966
0.06705869487079437
0.06717169307236713
0.06789513631124885
0.07490135688317204
0.06877611445345436
0.05535178301280713
0.07943161633393678
0.11519352869115426
0.11210819995041843
0.12059214734783798
0.10137657423333034
0.054669772317403775
-0.048904755786660946
-0.2493621318056006
-0.4501105553010304
-0.6376895185325442
-0.7654892836478537
-0.7616275586313975
-0.5671726435829265
-0.2573559908037757
-0.05529588896597443
0.024577230618178028
0.04227232973110849
0.023435103556997093
0.01602818390469677
0.025252305976141143
0.044224986892824295
0.032411573415960133
0.015295739774546027
0.029127486957005934
0.031094615162144353
0.01934384301544624
0.018111197018953903
0.05546488825766921
0.06431427276242589
0.031147326269743487
0.015438708274776065
0.00958999375869677
0.01831108747695817
0.016227127809053783
-0.0032185506758065016
-0.011198053651126819
-0.013262767576323095
-0.02065762552343158
-0.023881452908515434
-0.029473799924651455
-0.03126565304600578
-0.022868493805248847
0.002767393551099496
0.01886335822421984
0.013680551406960909
0.005831668523910067
-0.036965051116197814
-0.05360920426174594
-0.044312397007973334
-0.06457862406218323
-0.0782166984589395
-0.07918374023045116
-0.07450843759797948
-0.08439449125958093
-0.09560270133003143
-0.07695298382780208
-0.08141135196908035
-0.09744912257924099
-0.08161619890613248
-0.07454410632376626
-0.06617644323201646
-0.04986101335449656
-0.048670632248535975
-0.04046403471918477
-0.031107404444346363
-0.02037704178382056
-0.007415844835214361
-0.0005958277033642212
0.03995838878814267
0.11251818328348913
0.1859220938501686
0.23555685810425686
0.27037874450258925
0.24578740338520538
0.12263068577715576
0.009686281351769493
-0.031433998982834443
-0.01065990123258917
0.029519111075610227
0.047915911901981086
0.05099169944942332
0.04757409597763031
0.027991338822086216
0.010821663165961427
0.016039069224016773
0.009018881726859045
-0.007858980052425732
-0.0011022036558721235
0.012291718058352798
-0.00043137613692136034
-0.012458729903279717
-0.02241762884775813
-0.04107343700310327
-0.03912307738464192
-0.032551732844258344
-0.043613583789275295
-0.05206621954449824
-0.05185594417282462
-0.049722754396240576
-0.04201272913281624
-0.05308957654147291
-0.07217706739737112
-0.07951193888946423
-0.08310506617720062
-0.09239929866932686
-0.11621869530186896
-0.1273937908091949
-0.13565026861055285
-0.14155631511279554
-0.13981822378950792
-0.13925689501468888
-0.10443306197129193
-0.06012806050609977
-0.03149704996468517
-0.017411939770713716
-0.004502060199677686
0.022495012440594073
0.0354850458092464
0.055397715219366345
0.07665914404181468
0.09154317971274245
0.08908258908848886
0.07502878680834234
0.08341395416501068
0.07911939524315145
0.06479793578380136
0.05551206017568986
0.04150930402090501
0.03830884228143848
0.0424734704399496
0.024608003388869704
0.0029155744833814223
-0.013101877857134146
-0.006434209784495888
0.017183929826602707
-0.008824301003881065
-0.10000311146036778
-0.26705861700524397
-0.48132151809886436
-0.6906158171594823
-0.8800003422658192
-1.0043194942563618
-0.9354575378404979
-0.652450738999792
-0.3429214847395553
-0.13215319060598685
-0.0441750272796254
-0.028612030046483265
-0.02526007463451235
-0.02140375861452852
-0.007544920169536153
-0.009340122264555092
-0.0004985047885952415
0.021774440274822657
0.01966644139036483
0.02556630357504474
0.015790441541599504
0.006647936338304537
0.015390639164937187
-0.012869232587758718
-0.023098906832493327
-0.015625322115012504
-0.023874576790956004
-0.030323962435595223
-0.0424303168676219
-0.05421846440977987
-0.05583840572146108
-0.057696248698311345
-0.06932177837284399
-0.0756299437900145
-0.07636860670002761
-0.060531850764373195
-0.06380121529483603
-0.08363366901014427
-0.043342745163511165
-0.026294130838550596
-0.05276519651080332
-0.05558148487281304
-0.08049318570520465
-0.0950394274222795
-0.09570180913107244
-0.11913221470027002
-0.13200201918002621
-0.14057459693901028
-0.13853512259500503
-0.1501931648249445
-0.17181238112878755
-0.15241540659316913
-0.14411800549926845
-0.15311296087498755
-0.14068787691421297
-0.12608396723057994
-0.1266724155380634
-0.1257473878488135
-0.10756803138559135
-0.09278037069939785
-0.0702848664756452
-0.06000130562432483
-0.03978696031544365
0.0282355418272196
0.09254154830721205
0.16257394178398143
0.19603677697191296
0.19747746618168172
0.15852417802487465
0.017984604035051126
-0.06785419269437966
-0.05961134901750345
-0.03552263263221862
-0.02820451274188639
-0.04179423395029717
-0.04174469588293599
-0.0487757700904399
-0.03965682130843922
-0.04324977243573276
-0.06652275369024722
-0.07603682050769535
-0.08182515483368843
-0.06492459545603413
-0.0682662445576602
-0.07785785909270293
-0.07423613152244277
-0.07891347858810716
-0.06580358724640673
-0.06283946172262812
-0.07475700632450354
-0.06280298697030623
-0.05286332445997814
-0.06907729873614814
-0.03939546131271694
0.0011383091862348683
-0.0028136643529698517
0.0005075858352837671
-0.0017298296927985672
-0.00921964018879326
-0.020610902143794643
-0.024050380615172225
-0.008539089111113451
-0.018045453160360467
-0.03502441681899373
-0.021885481356256502
-0.02041606007848236
-0.013646878080726333
0.0017710509450406878
0.00018484515201081658
0.013032975442029734
0.01920584099882327
0.035662043012831476
0.052677709921747584
0.03532627053612127
0.054582981307403716
0.0882517766676802
0.07515467177030555
0.06713432164380392
0.06508196233411316
0.0788161584713977
0.08479798918421458
0.05579145456086673
0.043949556465493006
0.05045554595846283
0.06544357260296833
0.06456735869867036
0.05427297723833907
0.059001355089454983
0.07629293294968834
0.09331086001784261
0.09438936807962695
0.09030439375488761
0.0809829558959162
0.07464167557170327
0.0723280787905986
-0.009295080182981684
-0.07059442473735128
-0.04924365565617174
-0.06426871354846173
-0.06095492656507036
-0.048077528948688955
-0.059542963783317665
-0.06555585889730048
-0.06906365406737555
-0.050547513665331854
-0.03782869421487374
-0.04997932455439635
-0.041086917233012096
-0.026241815039601844
-0.033214735960944416
-0.03821812305983531
-0.03200428968770208
-0.03672932816395354
-0.04445913542456399
-0.03639197784007784
-0.04367071625771267
-0.03622287971553965
-0.03232698437388742
-0.042235046118085436
-0.035016887562567225
-0.04381875694198354
-0.02189007801683362
-0.00328396549921715
-0.020695457857605723
-0.016203976954461095
0.0008455568188528578
0.016912536703846084
0.01899833318785151
0.011687301488909008
-0.0034763567676117015
-0.011086855994615782
-0.007461616469470618
-0.014219251119289861
-0.006704292996002469
-0.004027383339137469
-0.013944249725404942
-0.007854918066881923
0.008184130678941314
0.030411265217560803
0.03706904439899243
0.027418631743070285
-0.006904430571574648
-0.03252722328808894
-0.01734653611692214
-0.016111791349155233
-0.017088014052841626
-0.0007494314358883689
0.0015414683516738747
-0.007650091898822493
0.0022235661116098773
0.01147691746947279
-0.006406133956788476
-0.008791030046719321
0.008830849578935387
0.0074380153198493545
0.010449203239420196
0.012700674427931005
0.012337838828886352
-0.010466690366621886
-0.05294587692284301
-0.03977350540835025
-0.03344888453932195
-0.04334707917899886
-0.03149871098891395
-0.03807134848035941
-0.04921068723467189
-0.05135170148415604
-0.05229353691077385
-0.0554388668059389
-0.06350759751624602
-0.06576839075747122
-0.0726548176730001
-0.08731256646537408
-0.08248404634713342
-0.07065617617214617
-0.06527024275874056
-0.06493099396995965
-0.06181344218395399
-0.04798470733894783
-0.025066102932787687
-0.004718293220007351
0.0005641270431935991
0.01615165149437961
0.029782909451270285
0.0355744863384891
0.041470976102824825
0.03730823164509264
0.03632198089886249
0.031044587710830913
0.0332656945448442
0.03877982154123594
0.03245612057066604
0.03218498780566413
0.035688797032648475
0.0016876718279708325
-0.09906696775420841
-0.2630419691723458
-0.46809714513330025
-0.6525852083185341
-0.7884721233898717
-0.8701641039785954
-0.798101103908709
-0.5373941499788326
-0.2500728513655154
-0.06524401259684486
0.007513831360609649
0.007041742208566448
-0.006336156206879662
0.0056834458353512305
0.03167254475407183
0.055334125857366516
0.06459299095145833
0.06753268581592729
0.09323561805048408
0.09476801959715009
0.08009908137177008
0.0936277339337917
0.09115776392750319
0.0893329222105429
0.08476057296489062
0.07065793372894505
0.059059428509698406
0.03780458161938558
0.035002804003150326
0.03529543122464489
0.035153685838180904
0.02382354771899239
0.013012672046521175
0.0178928300241939
0.016042361990358467
0.010805525877204986
0.014451582821641336
0.026140221156976885
0.02164024460546685
0.02653306559117912
0.03679622187017619
0.024415155764973183
0.015255216079818813
0.01657974639935274
0.0038922991901684046
-0.02353123191802223
-0.043763221724462974
-0.008665949209861306
0.026373792467765014
-0.012359804683176146
-0.03592196450133657
-0.02428586677990815
-0.02491137529422258
-0.03313121100797425
-0.018846896406430242
-0.008357130624619725
-0.014326602846740722
-0.004020252828353207
-0.007006654966528986
-0.004942465244273064
0.01392044399506748
0.015848759882485918
0.041083857994333305
0.10652961487925519
0.18213663465735355
0.2609559282361278
0.3119487626257384
0.3347757764228365
0.2644036224108186
0.11393338919486583
0.02648054538824377
0.0005490201843737288
0.016446296466783833
0.04852439908161764
0.057692493639902184
0.04621666832588266
0.062559858755229
0.07993134811380247
0.0812612942246376
0.0910680086408755
0.07218939162523674
0.06133364911611684
0.07585408515868974
0.082533649201446
0.06250359839043651
0.04895287612945801
0.0569572630289522
0.06413132519276243
0.06715876848878555
0.06996996716708169
0.08347291179051652
0.08321341234232665
0.07100082164483942
0.07780627421234072
0.08423125338673032
0.07921397888981477
0.0787767547238748
0.07157359856700087
0.07096033666485907
0.09427559446933631
0.09902808029440305