-0.07713347061250345
-0.05081153542538105
-0.04942877894988493
-0.04271543612778683
-0.04062914364967449
-0.12274328399712404
-0.18163851729956276
-0.1290157277923372
-0.12175635198852354
-0.17057714488535666
-0.21251597807089312
-0.24658859780803474
-0.25459694303176866
-0.23997962273921583
-0.24132946046477613
-0.2774172602916962
-0.2620912205656167
-0.2270313410090321
-0.23405466744145142
-0.2277166949666279
-0.23578533768385707
-0.25655731412269034
-0.22586707165745626
-0.19304138380810915
-0.17963835601282546
-0.13510028590099493
-0.021890354546625468
0.21748298681495723
0.530015350346419
0.7725929910212463
0.9781429382507797
1.132836009706755
1.0027590990081814
0.5919300102282412
0.2238485094974964
-0.05268438030614676
-0.2802266497510964
-0.33934660235749686
-0.32982040799813517
-0.31092441463437037
-0.25830404284361247
-0.26670598507177895
-0.3021964036261161
-0.2782250816788954
-0.24441794555220064
-0.24924592467312162
-0.2792401655449689
-0.30895329845717256
-0.30764416750579465
-0.25516914290456405
-0.22121700831521254
-0.25879551101717024
-0.28241163835947825
-0.26064364893349046
-0.23521844291385008
-0.20327382533826624
-0.20041060829524496
-0.1821595998169121
-0.14872953762550134
-0.16865956467017507
-0.15022907349077108
-0.1556895378174681
-0.22007120923304083
-0.19640797975013335
-0.18760738549449274
-0.20800751731869135
-0.13339891610637988
-0.10772198393134719
-0.13233009528695283
-0.1174455267736587
-0.1185751966890187
-0.09506363271249968
-0.06912292208245979
-0.06669908921401718
-0.06827443810192901
-0.08433060953134686
-0.07966689969808477
-0.06525603051109634
-0.09528361410720518
-0.11258278071896358
-0.07333398763436685
-0.08802996646203093
-0.12495522770264356
-0.09881960045857852
-0.09302414098122626
-0.17437657160711373
-0.23648010107206657
-0.2100338151184055
-0.19220331033793303
-0.2130938044950823
-0.22979226941500655
-0.294622350351764
-0.34708052049212285
-0.3273398221690875
-0.3211053376294459
-0.27214883470262924
-0.23348107042208208
-0.23295063965060467
-0.2038065375826244
-0.2477791127040413
-0.26268312227612955
-0.20330479081033687
-0.2112134554256016
-0.1768088259288734
-0.16041774482034654
-0.24897697616683923
-0.2420682302687703
-0.1693441445173622
-0.13297772076707873
-0.11632626051385332
-0.14610070182752039
-0.17753143553712153
-0.13927655398943897
-0.1368128999701227
-0.14982674457791972
-0.0832924204432347
-0.06852511810002987
-0.08207624982281209
-0.11182694522485856
-0.15461433850138737
-0.08539699226353936
-0.05050996939129125
-0.15165127936092324
-0.20674292158414942
-0.1675464807042283
-0.1673669063695359
-0.13420587661265637
-0.1009978335942131
-0.1477796357997162
-0.164146696134431
-0.14272377412256881
-0.0997018321276919
-0.12658741044475763
-0.12456221188338147
-0.01639286606926946
0.016033111202044134
-0.027769837645479068
-0.016959935362609133
-0.0020408513685715073
-0.0761229090258882
-0.1410639916140174
-0.15576124708977027
-0.15866095252583454
-0.18824550879243182
-0.22289111813218418
-0.2538261165229366
-0.28433934423960744
-0.2724082410857159
-0.2667451412348096
-0.2693811771509069
-0.259149776670182
-0.2413660037294617
-0.24646582269339676
-0.27137175152824294
-0.2408555198746627
-0.18553793919960349
-0.1748270851594894
-0.17563412046462198
-0.15020680060527308
-0.12079113922436621
-0.0830179952976355
-0.011752018835980045
0.19565343453976916
0.5066772042831309
0.7512103349742222
1.0102899811870565
1.2233995643199482
1.1293206231555977
0.74308237388545
0.34117632426870953
0.07489329629251607
-0.14369103035692293
-0.2451152518322649
-0.23573768011218005
-0.22331178103378452
-0.20817894560877603
-0.19555585041534793
-0.19845449448679237
-0.23536776069402893
-0.2345742161127776
-0.2056219064977235
-0.17381845830620138
-0.16659718534225007
-0.1812789904817779
-0.16663587305408173
-0.1402147202796028
-0.14303117115988784
-0.16037007333003772
-0.12997281047623496
-0.11113779277457438
-0.09332320947486275
-0.07137712066687676
-0.09122347253798593
-0.09055776208598706
-0.04996367823541829
-0.02794043838474998
-0.040353159082848734
-0.04764975660779447
-0.022028399677622924
0.0037993458897042694
-0.0019065767240797529
0.014198087113745763
0.044356262741464994
0.05323356473044753
0.06602727447608987
0.09542708372661088
0.12707102211408305
0.14308581128353556
0.14856461339746027
0.14312875953971396
0.14952109220011842
0.16432045254661964
0.14644035386454177
0.1242785549959995
0.1156232667225627
0.10453307702284605
0.09099162886195908
0.08317270419386893
0.06972134824145176
0.036956442087890826
0.008706794483978295
-0.009227318178231386
-0.0027140522125097336
-0.018957242672541494
-0.08579446446408792
-0.14325546004394502
-0.17137693008743554
-0.18628780115482688
-0.21136271957591446
-0.19527475789382834
-0.13182655763817325
-0.0626955451105393
-0.028297406672234682
-0.04822965836309444
-0.07236883172241501
-0.10417413123442834
-0.11626739975275976
-0.09062580254313461
-0.08956097424599938
-0.09348227273055368
-0.07131046476568305
-0.06944328210802025
-0.08428924015930574
-0.06738662926975306
-0.03534542818365786
-0.031212486024064828
-0.017867604228040408
0.022443329960303234
0.052084920596586426
0.07358474802792153
0.10238023718085476
0.14144373376365155
0.16172615079868893
0.18061096212966674
0.21448704652768472
0.21527677109094748
0.20977511264214782
0.22438576663612042
0.220936132031063
0.18820606457962258
0.1503131590200216
0.133457847254342
0.0943744325327579
0.039994603325453855
-0.0061848227748183115
-0.08022022669271621
-0.12532216670554006
-0.12486775309970816
-0.12205345566662376
-0.12928690532740988
-0.13078671572336503
-0.12184748025459431
-0.13444444076876952
-0.14215842399179843
-0.13595341878677597
-0.13957969577788917
-0.13693459483661716
-0.12043218538275095
-0.12991889977912
-0.1515869564683041
-0.16096031081144238
-0.18733370248174688
-0.17126733727476826
-0.07991840538984916
0.1359166871619239
0.4961618136831523
0.8777809228904538
1.2223057901137022
1.4673638190001113
1.4689609894650386
1.0607400495711927
0.4588308570703923
0.06928118647883466
-0.09150741979593438
-0.1260252142624851
-0.09875553396105884
-0.0815847220300924
-0.10616500986037558
-0.13986436763600035
-0.14153858892353371
-0.13792859491742954
-0.1514630208321587
-0.15285744282918992
-0.13165933232486857
-0.12360331856700613
-0.15695211090421568
-0.1596503795731814
-0.11336943138029465
-0.10087010523770869
-0.10650248220226442
-0.11003333611603636
-0.10222553197296108
-0.07691282268385646
-0.07843938845662268
-0.07607231406259643
-0.04973685539462461
-0.03969775107378383
-0.034030537242029944
-0.03314005365943103
-0.03175163937514482
-0.027035286600288463
-0.0269432842257065
-0.028258938548706727
-0.010899381738790013
0.03967578209936784
0.05642641809000749
0.04914299203374166
0.07197169357928954
0.10129506495238096
0.11752107433967825
0.11079432919614587
0.11517586548052743
0.13411922910102514
0.11896411906309878
0.10695322151346309
0.11357384565544745
0.10678782645598392
0.09141353446673725
0.0704078805782346
0.0524388352657751
0.04118003024496026
0.019078645336791496
-0.002488327174032568
-0.02550025683305346
-0.05311477962577685
-0.06663897174821432
-0.10079214525189112
-0.1570603508026212
-0.1989753885687967
-0.21603811650889015
-0.23902239947631448
-0.2472819445488523
-0.18851317556867236
-0.11345914939563642
-0.08192919058255035
-0.09763273340885675
-0.11862977311532634
-0.12860323187340456
-0.13289123385214086
-0.13207605098602387
-0.10593401080488624
-0.07529297944483007
-0.08548154137866101
-0.0774012543235085
-0.048251086528758765
-0.05188775886044768
-0.06340692039208592
-0.04795083006955621
-0.023759167745272706
-0.0040559365990046475
0.00896248283988502
-0.0008830134454596468
-0.011241934748795375
0.0038901146140619784
0.017789931124960807
0.01607338402481762
0.014022191980007785
0.01418600113358777
0.03334021170906551
0.061868355468829885
0.08611538569778815
0.11968565520517488
0.1500452111829829
0.18282406324685685
0.2141181334432309
0.23302116225641717
0.24507451834459484
0.25930613954605514
0.2680237943933848
0.23682356350785358
0.18758278623209587
0.14910619902887226
0.12848653421786105
0.08895890260039374
0.02022243024861698
-0.019796488475969556
-0.057064309360773335
-0.10565549339664909
-0.1389819038251609
-0.13483868114648162
-0.11880970876360761
-0.13347422659686156
-0.13233674034645582
-0.11716668988229764
-0.11389241286204857
-0.10668624065917925
-0.10738562266582667
-0.10832930534980308
-0.08427495957440867
-0.059561572618199
-0.04252928000218385
-0.045483284100885896
-0.07352838011551494
-0.04004468852289211
0.13620238989103023
0.46331535049064726
0.8699603636899023
1.2900871348968201
1.6750531707524159
1.9045451654356804
1.7550448064237096
1.2030633883579318
0.5873079441478549
0.16852892794462154
-0.01092156574821701
-0.04068984084964528
-0.028485467071070057
-0.0386540808921194
-0.06857086792569943
-0.06093806425139737
-0.07877847375677802
-0.11571121897427483
-0.11846408531365232
-0.12964625172360916
-0.11191454513057236
-0.09381336422826682
-0.09203533130720146
-0.0619285555250753
-0.04957721467913973
-0.047464372371835324
-0.04962368242351146
-0.048555231306903354
-0.02612883184223029
-0.0015322703798464204
-0.006637877786066913
-0.014445345770174194
0.02276718573075208
0.045348815645136584
0.03952675277289631
0.034133701095906514
0.047923598011791524
0.07615379816454783
0.06508473295096533
0.054236462262674354
0.07305718554165727
0.08107272613075964
0.1061701892406352
0.14104261998717538
0.15441578023629143
0.18254416599797468
0.2109062613161172
0.20798292978642524
0.20299754368423983
0.22785418287994227
0.2548479278822848
0.24465197554263263
0.23012194909114234
0.233157833360569
0.22168425377470213
0.19344215888520244
0.1864963184883578
0.18185261028884103
0.15082493146234163
0.12574624492550907
0.0949501724574196
0.07570934608130728
0.05624678338339131
-3.148296243152618e-05
-0.042390073895173234
-0.08560205396248485
-0.11617686793690721
-0.12169119644359311
-0.11177145452060504
-0.04232457312045625
0.003940129404785726
-0.008105209909399953
-0.023468279464944862
-0.023931005828183773
-0.011698206235914194
-0.01276049336769064
-0.007461644226474884
-0.011682454286105138
0.002533574696406884
0.03587128391467736
0.044644144801431834
0.050536765176316556
0.046828925153866274
0.060495833930472406
0.0675958893432498
0.0642706187570457
0.07659382624820985
0.056921661759681094
0.04801419200453372
0.06717439675101661
0.05938321742335155
0.049459956191759614
0.06508364498270273
0.0538346338226495
0.03128378944625276
0.038279180613296375
0.033313058579378885
0.028269465848992217
0.03523617157271674
0.04338745292944877
0.0409606638944955
0.02098895998880861
0.025253269216099213
0.05018180234912884
0.048123172891431566
0.04786960945218343
0.05010329489506761
0.05103922658405101
0.06508747465217068
0.05237896441229861
0.04885179966936774
0.04339974580168933
0.030274840044820013
0.05060667537226858
0.044197868270136165
0.027499699355723994
0.042022731179470044
0.04037354095165303
0.03402670853408485
0.026769932282631657
0.0237144551998882
0.04618432819462896
0.0543766545127166
0.04792659797382315
0.033102878077542065
0.02448858958866918
0.033544877874172374
0.03535686671411568
0.009227985774612708
-0.02947075617034122
-0.032912889540146525
-0.015254589521495374
-0.002527837294552235
0.0039384166301787635
0.002722586940304278
0.03930292159370075
0.07185857127091921
0.06114373120355061
0.06697062019028657
0.06351731793712348
0.05294342617321342
0.06126550775446582
0.07623782888122424
0.08375036221375719
0.06045431340829078
0.050100990343998
0.06278732940696771
0.05469701226968549
0.051974977221325706
0.06588297103265513
0.06523605549200016
0.055968786205973155
0.0668557227575299
0.07208752217515466
0.06215274842278434
0.07216509726856621
0.0668585293504624
0.05827583586965935
0.06421963283942618
0.06816810762601544
0.07504202640071687
0.046679515830566835
0.030343516496630127
0.04085524400501971
0.03579639206279807
0.017472989990573194
-0.001351757170387706
0.003547599184159079
0.009329767410829776
0.02125670441977555
0.034711964783436855
0.031568146550423434
0.0303939438034396
0.017987293344695402
0.01526975249823051
0.028334058721571416
0.021361157308767885
0.0023906011635175146
-0.026810191414069484
-0.03930110035959427
-0.024381749837077034
0.04289753769704706
0.10009237932114848
0.08606323234921578
0.08660596969721503
0.08766727183197154
0.0727369187153465
0.07349834958217027
0.08744834455560255
0.08104683161257685
0.061837568421008064
0.06480207146309216
0.06364444236396855
0.05202667283300179
0.061704928710876426
0.06721860855606371
0.06130002616317913
0.053717920457665186
0.05828358987283716
0.08670888896461264
0.07970053275091978
0.07485954405667306
0.09211460025974032
0.09416554709450863
0.10691410548924653
0.11834569990295456
0.11806208539273325
0.12434670453332687
0.13283918594063018
0.14271972750768727
0.15168753057569886
0.1520635113036883
0.152437732347576
0.14949749236432047
0.13491285001480482
0.11945263946389853
0.12057152593407519
0.11358923753434058
0.08604843507699522
0.0670019632739143
0.06263032890623126
0.055355527593236115
0.024152632655745132
0.001687762240376263
0.00871487427115282
0.00489753430944458
-0.0024723933203596622
0.01003409318408141
0.025117872758132966
0.030925112813960272
0.03185702622923553
0.030059779214609422
0.020808816061253593
0.020704028424407453
0.09419986005250594
0.2972608475830636
0.6215914466236357
1.0059528547112264
1.3688515112874007
1.6503485840701886
1.7736268728251021
1.592958837383715
1.0817181683280195
0.5006228352287417
0.13550829292706115
-0.0017458136328720375
-0.02074819799506108
0.009896195950082436
-0.005698591605496152
-0.046171022038060686
-0.06613818408057494
-0.08776971409797582
-0.09534879426438475
-0.11826214908635849
-0.12133738700762979
-0.09847278032798815
-0.11369590082416772
-0.1279440100541515
-0.12579432114661895
-0.10491824619396845
-0.08598878153485529
-0.08846169428243628
-0.07940323778451383
-0.06802720659967773
-0.06182593795048976
-0.06491069016075866
-0.06296186793227912
-0.05794036411782365
-0.05190041273906395
-0.04898359485567197
-0.04540229299689042
-0.039794030710952145
-0.04572779366351149
-0.03510891250760108
-0.032766244907552165
-0.032380648440763965
-0.020137135860988073
-0.013233854292257572
-0.006253403276632039
0.0030122439246754984
0.029125541503918426
0.05475840623678141
0.03779218175779265
0.017108168325492685
0.051663925122788425
0.0794679624592121
0.06330022685656721
0.05179663493518503
0.06059406178126951
0.047428222147831295
0.02596366280529266
0.029560230466305
0.024670774441670353
0.029929596220995648
0.027881678959722593
-0.0027011202730328103
-0.014716923334770843
-0.0437966156411347
-0.09436509265866014
-0.13728311498365403
-0.1877123364227801
-0.22352631514015708
-0.24136045119203026
-0.21116777315496132
-0.14312061070939214
-0.10337499092012785
-0.09282939212930146
-0.10345626467450962
-0.1252336803029993
-0.13502171042101577
-0.12249683880727108
-0.13668440561993397
-0.1441279575398385
-0.13718728814293052
-0.14919101460190826
-0.13247863805563523
-0.12240487504299571
-0.13850128588172195
-0.14938549312019267
-0.1347116748050551
-0.11549590262180763
-0.12092254562572782
-0.13289570861999253
-0.13614776819691188
-0.13189804124933605
-0.13625145641049521
-0.13045747283341017
-0.11442249327616826
-0.12057086772632651
-0.11551771997026887
-0.09706581292089324
-0.1010238540713792
-0.10142847147043237
-0.0935554085578081
-0.10730608622331504
-0.11727941278517473