0.11125525901459701
0.07677973579408442
0.07703811290536186
0.09308229904135687
0.08907774576803083
0.11365867764698337
0.14941899323675106
0.1339212299490169
0.15280925095141334
0.18599953078960038
0.197595668374879
0.23276039088356199
0.24643566935324984
0.2174762759083435
0.20540910686836839
0.22872240047660347
0.23356179128464022
0.2210661121702914
0.22600661759483648
0.2255716723528915
0.2236132508613466
0.25110543904170807
0.24535964621486642
0.22036828327370922
0.22866313946569072
0.1922390221387305
0.12374538423003903
0.03057260129797297
-0.13177386997986223
-0.28213880508328004
-0.3906828465603303
-0.4672320242418626
-0.4009564937818109
-0.18209537904873302
-0.0006852995021312119
0.1380704838292479
0.2628777540188993
0.277840469102225
0.2689414785065989
0.2730968949975682
0.2435978037475487
0.25284754388402075
0.27380181342151316
0.2575120952664026
0.2442084977775197
0.23368030117210795
0.2373059816510844
0.23037568418944476
0.22460720458463115
0.2189745419148334
0.19867212102711823
0.21820042664487388
0.2344606135733086
0.22408980209328136
0.2340362992373375
0.22772260491190888
0.22236601641611767
0.22643091180548058
0.20701582542172797
0.21630139264248371
0.21019122243788302
0.21235237248516547
0.21964317534117556
0.16319618777432848
0.16352728977285522
0.1739123209842741
0.11754909569753508
0.09962298155649585
0.11194922028823238
0.10555877043576543
0.11352425957702034
0.12361295654745946
0.10733742140967048
0.08821463222614781
0.09228562634616497
0.10139815730837579
0.09057750662200542
0.09328344190795507
0.11121394784076391
0.13693252266972156
0.13194752924557046
0.12861178305513832
0.15169327429020646
0.16995660749429486
0.1875535627423227
0.18796661154263164
0.23552802310270768
0.2413883367276396
0.2069178200411298
0.19621708209494115
0.11440360908159629
0.03706212946755558
-0.02155561157042815
-0.04451760505957657
0.048770801500991015
0.18322281301651563
0.28494799847171143
0.32611842515422373
0.3066802012732813
0.28330679358130856
0.25056841977951205
0.22866870002416978
0.2388097540744719
0.21755431422948535
0.21938621615275627
0.25353340234626026
0.22692117742797044
0.18540511500708412
0.17986082726566582
0.18341449429015128
0.19532034786343525
0.1986474456693426
0.18918254997389788
0.18776486191449465
0.18642070191612808
0.15274806182651302
0.1314216399683226
0.13422156502567478
0.14532380839142905
0.1679852909842104
0.134131992833142
0.10954211346773106
0.16127431285250737
0.18801593847320858
0.15807796242916458
0.13547865371044743
0.12494915716050778
0.1282825643826936
0.11919700694389311
0.10562473070410408
0.10497236605002837
0.08341656956502941
0.08753879597021547
0.05332853951597046
-0.002251258841423215
0.010800578090084077
0.010195636603197004
-0.0065228519412107114
0.00723802437578353
0.031817794896357214
0.05404575349827764
0.07051327584830362
0.07000773662371697
0.06570079534813039
0.10437106336014318
0.13541909043297423
0.12597259909031167
0.15119445679191057
0.17013489521537362
0.15116268826362103
0.13321688217488212
0.1394393472372085
0.1692797742625124
0.18157696663008016
0.17417213214925958
0.15713167345875373
0.14040237567348535
0.1408097184796005
0.15353472827157028
0.15179287141338824
0.1198614751728504
0.08268261624870216
-0.02639557353950768
-0.1916556949119897
-0.3032262668470841
-0.3995566817372115
-0.4872330741826752
-0.44399618837827426
-0.24317704807288962
-0.06621762197904361
0.06371576296535578
0.1963494300181957
0.21002612765916057
0.1840648838556131
0.200560195400456
0.19674912478517592
0.20384925376311946
0.18934942459445786
0.1747036332601261
0.2071503200870182
0.20417837702005995
0.15805586094668903
0.13104358155405257
0.12434330398076247
0.11484897238055163
0.11125582627665823
0.12427062724924808
0.134779073904844
0.12068231639852127
0.10530229830007437
0.10798791292627438
0.1051599931984592
0.10066221693534674
0.10515683561977929
0.09462842074455297
0.07229521280431632
0.07011285072353703
0.06799552690652835
0.052341707744367444
0.03922009285846949
0.027216608577914053
0.034817075366407164
0.03430546492562564
0.008091239262084375
0.012354097019191934
0.012779538838540196
-0.02198645216340378
-0.018128051461851903
0.0017558102224836183
-0.0008807211981049431
-0.01229844689550337
-0.015921958238632808
-0.01972319885905551
-0.02550044765311522
-0.004783246021288212
0.015112868609728158
0.027738103440232385
0.027453531534867973
0.02099882276064333
0.04131201593035162
0.06734233030583683
0.08198028159290482
0.09476712529287887
0.08869850349045351
0.06378251167496954
0.0036295395931190827
-0.0759260719077241
-0.1272781837640713
-0.14562835637946908
-0.058939981957114335
0.08977027663504479
0.17764585593066512
0.21419646856094654
0.21164631043603443
0.18615877269072442
0.16869733256941277
0.12680766652020362
0.09361527748439344
0.09527530077070415
0.08325179350976984
0.08411108220844962
0.0917383692569253
0.07584264109933864
0.06514200335398057
0.07566145266155683
0.08067125124349972
0.07564415785394947
0.048341825725848594
0.018875068425270942
0.005565396035363088
-0.02935022851656055
-0.04913165466704822
-0.06003975777853228
-0.0679562660728073
-0.05747971448544204
-0.06225179051445224
-0.07011672511412914
-0.08584178934426359
-0.09710522220964911
-0.08196759588046144
-0.06839734169206628
-0.05452801879788137
-0.027825754655382277
-0.00685046794581849
0.014544839389508407
0.04072614790382535
0.07012270615973336
0.07552913854845561
0.04925869277307234
0.055786832654052286
0.07706913609633742
0.0716249479450263
0.06749476290703542
0.07759174353511937
0.06811266453028653
0.06127066623189884
0.0679526023597323
0.0683232754889894
0.040839172482265346
0.010126727472481695
0.027766747831225798
0.04879135772926589
0.059395492644140443
0.015441586657459264
-0.09971432323813029
-0.24594553190153542
-0.42019030501888777
-0.5669251892640292
-0.6806696192537254
-0.689235388234389
-0.4690323267900463
-0.18284782475423025
-0.0002151003618221653
0.08104784203094913
0.09757973613146599
0.09261553935308328
0.08206598953229524
0.09946616985359888
0.11277751202662666
0.1346988295381114
0.158411893598996
0.15340488284786838
0.1519855651686793
0.14330603807408104
0.134619096391085
0.11682800077617223
0.1056767181601987
0.09924703139082039
0.10876229319231814
0.12601998667185796
0.11619263569311819
0.1092554962821918
0.10791468137148613
0.12324927402737494
0.12353436471066707
0.10074518306521879
0.0927327562792375
0.09449704953045901
0.09629615995591767
0.08044967550894118
0.0314347262152188
0.004485448593908932
0.014877665720007455
0.004813061445203238
0.008707375727839238
0.014113449649566581
0.008330005634966667
0.011668781997919354
-0.004698922504942117
-0.02472186540215239
-0.023545042931562038
-0.01291033520806837
-0.01948780325131446
-0.03036385237112825
-0.006918708736150206
0.010983410091471711
-0.006356770431091084
0.002355464583960791
0.016416897949047965
0.013183241903127467
0.026211013420946273
0.04200186408291929
0.05516344363928736
0.06796207875043887
0.0831794475597264
0.08984500850322613
0.06779221235561705
0.021883495597679728
-0.04456963832521872
-0.10454394149524122
-0.13193470820256284
-0.07993641291020588
0.04696642446297021
0.1351350636078994
0.16162891908145788
0.14794347993279094
0.10897451236108474
0.09161112266123761
0.09220214605381559
0.09681124135198131
0.0945931163697046
0.08235453398317105
0.08724360646485338
0.08817020288657959
0.07743308212572124
0.0710206845737171
0.0640563637588599
0.06465340032094388
0.0524434401658298
0.04277063021160308
0.05650575121865875
0.06638248023501606
0.06924213440549108
0.06750248683004285
0.06305712440754932
0.06499539492161754
0.0641750013537239
0.05110654704324337
0.04402901195703418
0.03780397170384534
0.01769938388538951
-0.021072429978232145
-0.046061450461765734
-0.05006759215936085
-0.07316785990898303
-0.08461110199096814
-0.09083883260480057
-0.11271114641222703
-0.12527023416669827
-0.14170964805831823
-0.14989694746596155
-0.14631318209735442
-0.14229547933929187
-0.11110843646772883
-0.06445492773247943
-0.03274642504745125
-0.016243779551246132
0.013108751125840992
0.03273723891231043
0.031313926381160734
0.033364967004239576
0.03894237852079763
0.04458332839002199
0.048225693536727926
0.05933645018991499
0.07306614751073066
0.0793327597520381
0.07364995639982144
0.07135327378442871
0.07455613935196297
0.07854216976480205
0.071368061775341
0.06939795710968208
0.0681000863703246
-0.014931334087427368
-0.17265610564545633
-0.35774462142176233
-0.5690898179299564
-0.7667369905601892
-0.8655277301536377
-0.7809638454974497
-0.5166666194775891
-0.21154145096454782
-0.004449919582850612
0.08818713313033168
0.10193983787699915
0.08008074715228065
0.08721170554704007
0.10400269085015948
0.09681762277612165
0.10586880632336275
0.11799089150766202
0.1251747114342617
0.13025116300640432
0.12290199093809731
0.11400459174051486
0.0970627098013733
0.10402012834636493
0.10460113095967519
0.08932803335413461
0.10595587121627528
0.11528024580186318
0.10555563723567689
0.09240713452276167
0.10191451325052435
0.11542087552408449
0.08518004964707056
0.06558481878984204
0.07457867413618426
0.0553748164794133
0.04243722814233802
0.037851050797510014
-0.014541735328768502
-0.028491731619314814
-0.009467586537537497
-0.01546116005299112
-0.0074049428121725075
-0.029657780945768014
-0.04638469176326783
-0.04483853016351619
-0.061204983121445934
-0.04301957815021654
-0.039771520587311406
-0.0534836357983489
-0.053443268628400445
-0.0721769564015616
-0.06663258962274235
-0.05568884302244609
-0.06109921017591456
-0.047782933129303345
-0.037541065421038064
-0.03289116730376554
-0.021819856307136586
-0.013027708735015686
-0.009458785817150803
-0.0009436187345349852
-0.008684110652115678
-0.0470172590954573
-0.09771581531845576
-0.15682049768998924
-0.171825471037312
-0.16687418171134538
-0.11517835734731771
0.026458424102189796
0.1078368152842518
0.11015919490837237
0.09049542700695752
0.07891552900738902
0.08525466489838088
0.0865884842951475
0.09124180911936636
0.08167130789553889
0.06870485446434543
0.06304287759750889
0.06720250777758312
0.06899290448772533
0.045769092221568504
0.03311596235547045
0.039635246030171815
0.03803272752801033
0.029397362649232144
0.033777096397769754
0.04071351353166857
0.03502914820615041
0.025494021719374982
0.022158932510950757
0.028350637916643245
-0.0061204095756710875
-0.04360890123872847
-0.04634946689611208
-0.045263387831311466
-0.03480957164399201
-0.03161549511563355
-0.023498433666273952
-0.014530250834040293
-0.013753464799889058
-0.0035952703541981728
-0.008535041767182242
-0.027688428261481247
-0.029799379138773972
-0.04405959639221292
-0.07100405368713583
-0.08709137478957896
-0.09156024495311438
-0.09714546789052911
-0.1173030660903049
-0.128162636596006
-0.1263526847232269
-0.14990212653918775
-0.18375256025376568
-0.181288094523136
-0.1657219240085439
-0.15383888193563505
-0.16705350716250505
-0.17294925557354188
-0.15456486186094984
-0.14575146679277715
-0.14799470722920224
-0.15320979177500332
-0.1402637172826762
-0.13518146589612828
-0.14547808076791255
-0.1394588692822975
-0.11622375846928273
-0.11343176074584954
-0.13016787022948553
-0.1316011434337907
-0.12965401479307714
-0.1241769139047367
-0.0369120951532982
0.021845946201026513
0.0005477844888854312
0.017820362327054133
0.016901787025619296
0.009537980016863706
0.01755092929957501
0.0076093263205351536
0.0034389404939496535
0.00364010489783205
-0.003753496767207775
-0.00041756495196304533
-0.004451154304560504
-0.025563611229097866
-0.03248606810863282
-0.0232845355562747
-0.021284565461794074
-0.02792541673678399
-0.022018137192599554
-0.02221703483024939
-0.023435602595233834
-0.028773239608050442
-0.023822807203066763
-0.015234433589092525
-0.032529330897075215
-0.02702477363098326
-0.02575589107936641
-0.034984746163478256
-0.019981228910683414
-0.020721894492962266
-0.02470658135218569
-0.026385218279226533
-0.03639402089196462
-0.031918525695954714
-0.02254834461368123
-0.027804526386889506
-0.029654834618113544
-0.016826506539103028
-0.012809236132923087
-0.013647364432411565
-0.014538328753086987
-0.015390012966887308
-0.016827686016258874
-0.01493852014384203
-0.009380273518861693
-0.01318871978901443
-0.04568933264343833
-0.07924446694804974
-0.08584008293741749
-0.08862164068102799
-0.08840967235455935
-0.09573350589398139
-0.10056691336235016
-0.10384763957609924
-0.11176838566945227
-0.1015782870104654
-0.07572587202280877
-0.07020753974075919
-0.08408697974222804
-0.09466993048091749
-0.10704015014045193
-0.10290115893079052
-0.09218695865836417
-0.060266969219413075
-0.0273687237480785
-0.03997820132064262
-0.04406458451002749
-0.05057433504798899
-0.07305621114448825
-0.07909989318506302
-0.07577645447948626
-0.07182994471671758
-0.07863971119314608
-0.08472080324427542
-0.08444697414983968
-0.0926360561718131
-0.08165998561658426
-0.057729365687811174
-0.06185657924053826
-0.062123506399496146
-0.05048644802063043
-0.05254371129550084
-0.04842991307253079
-0.03475673453774725
-0.04755911281057293
-0.07564328317496274
-0.07474758186297081
-0.059122929364959526
-0.05188853207261883
-0.0709106429256856
-0.07564833925063415
-0.058883861648008184
-0.07391542574354604
-0.08523147652889548
-0.09667630799335403
-0.10710907087437394
-0.09417323990392262
-0.08138673442444501
-0.08708669962029074
-0.12841259978329264
-0.2312361838537374
-0.3903853135442713
-0.5611085643928013
-0.7374933345189775
-0.8863445731104653
-0.9145623238024772
-0.7937766099971048
-0.5466339744726383
-0.2507090280291301
-0.07193770290800679
-0.0101953007571867
0.01592802697913736
-0.0026346675886438123
-0.0018742875849238486
0.008773788127294523
-0.00403929765484428
0.009371300544870533
0.0145772493259675
0.002290168697671159
0.003836483348256245
-0.0022014285156325766
-0.004451688790762555
0.01866240685969669
0.01883755784458712
-0.0013766266828597676
-0.0031115141684346856
0.019516544860417692
0.0428633476803758
0.03236493546098643
0.02360886522624486
0.027958110484043366
0.04424324437805151
0.0555660320795629
0.03937916694509544
0.03857418982363185
0.04252718086717892
0.028972736245200637
0.017403356289720517
0.010744809001023353
-0.0005334494418956521
-0.018152838529275038
-0.013842411793637875
-0.007780221076687925
-0.019295039630078514
-0.010503490549848005
0.0003846645248124815
-7.250544160359446e-05
-0.03594632699395468
-0.06676721188026527
-0.04828555902509099
-0.046087342443388524
-0.04392385784224269
-0.027543221089875735
-0.025573397361735608
-0.03182613551972466
-0.020689666032690675
-0.015535969210505466
-0.026193944541638457
-0.028228370017112554
-0.028938129872508354
-0.019599246294402052
-0.006792035357782076
-0.010077609135709242
-0.05172923458721179
-0.12051690445071721
-0.1846434318298395
-0.22187951752268792
-0.23614569244868713
-0.15911567314474923
0.0009384989544131278
0.0936990789130975
0.12285748919844572
0.1105311921213731
0.08610424193463635
0.08387479116151737
0.08630133786655701
0.07797944290119697
0.058951696530113916
0.04748089381617801
0.04714133840108516
0.056322531365452407
0.060983751530466215
0.05824490591114636
0.061624575491180236
0.07544290242267929
0.07240640994664682
0.06630128911938343
0.07030873617205263
0.06959907678123992
0.05924744305397857
0.04254708889646608
0.03525427654066913
0.0342286216268253
0.031084033281200813
0.013638204315807971
-0.0026022142551669694
0.00340388088871426
0.015948631015575043
0.006473316968979022
-0.014051209151140477
-0.008674250110438785