-0.04805806112916534
-0.03026194819282349
-0.02849928957771717
-0.014025603736801458
-0.013123874072397047
-0.1018284697377555
-0.15819862346477487
-0.10125038137119786
-0.0849839220056629
-0.13029276154658787
-0.17598090633512015
-0.2028021610162169
-0.20694206389682246
-0.2009850369237216
-0.207431709810384
-0.24141175215939406
-0.2210847481648839
-0.18401116434272197
-0.19046295389180712
-0.1830313650187969
-0.19349710487608984
-0.2074266013305452
-0.17289662750300094
-0.1435023472602473
-0.12410077142911426
-0.08522473422570172
0.023229728236065048
0.27320862469713786
0.583308872423758
0.8142560671921837
1.0174983872768035
1.172510401951361
1.0429283212970932
0.6374778606543963
0.2683440915961432
-0.007993062835676953
-0.23112087809375595
-0.2960797351881062
-0.2882078981951226
-0.2638705395622172
-0.21252572991331553
-0.21890816453252643
-0.25311495898273406
-0.23086525990811346
-0.1956181355516329
-0.20562298913890278
-0.24016580599352894
-0.2785936844728292
-0.27933011917310113
-0.21861315471954348
-0.18599156156740776
-0.22327444256265477
-0.24510972060205047
-0.223136457882876
-0.1886476118016851
-0.15283954844115594
-0.1515463233878469
-0.1280191550581023
-0.09566911498191041
-0.11587092054721658
-0.09619839921377207
-0.10188649638689554
-0.17622818094317877
-0.17041110059042863
-0.15971794668424918
-0.18004409238872
-0.11305906104864183
-0.0894171880950183
-0.11401642622905044
-0.09871112395408427
-0.0968805321960143
-0.06463117663601584
-0.04001253793508356
-0.0447530541663615
-0.04501507518384884
-0.06063746851426592
-0.059369276988899544
-0.040993859850133575
-0.06985475779234064
-0.08032632779486766
-0.03522177346301204
-0.054191246532381776
-0.08926896352708967
-0.05060087755257628
-0.036607544080542426
-0.13406524131148384
-0.1895649120453968
-0.15548524345103076
-0.14787684438906773
-0.1772257325561223
-0.22998927966536936
-0.3387219686350945
-0.42511886921871866
-0.4106148286267356
-0.36581808455493864
-0.25328947643654887
-0.16619808511781392
-0.1490933975190361
-0.12189576458983672
-0.18401221781232613
-0.21499237881955063
-0.15249826896273633
-0.15793224488093316
-0.12514886542285392
-0.10474680732331335
-0.19735901046170296
-0.1997134053513362
-0.129050927418001
-0.08762893401422814
-0.06622571490056348
-0.09719270304765035
-0.13357874437680878
-0.09145884479776761
-0.08906953519834937
-0.10522381272705243
-0.038851679801276434
-0.029661485732706813
-0.044802873777104596
-0.07606281091325864
-0.11834308980798068
-0.04882359358299043
-0.016795117882457078
-0.11747181009210493
-0.17288513051169585
-0.13782459187340812
-0.1466488261592641
-0.11106738907098451
-0.06988437455997829
-0.1296567601821022
-0.15472614307967555
-0.12927958252707122
-0.08627557072721853
-0.11688937414562296
-0.1281432384536696
-0.020571942819692636
0.023559964678486596
-0.029245550533296083
-0.022961063211615243
0.0004461881080276035
-0.07862037287252295
-0.14765848853750982
-0.15870818616840285
-0.16239004838151466
-0.19961429241166603
-0.22572091641456374
-0.2504237036543342
-0.29081817345140426
-0.2664121065860948
-0.25204021139562205
-0.2627923372756399
-0.25769297913426553
-0.23386346558047064
-0.22804707752707115
-0.25301531518185943
-0.2193577709898914
-0.1597928576560227
-0.15363155192199313
-0.15443705716570616
-0.11883426941769958
-0.08423221850388417
-0.05167700428802244
0.018970623896304807
0.22422589203191992
0.5313503671749612
0.780161895230233
1.052525304729583
1.273186247510868
1.1775862724354074
0.7944280294333841
0.38292454033083395
0.1153582607371616
-0.09388946442102925
-0.21012785113505367
-0.20925926259237082
-0.18775005908035902
-0.17111508481646087
-0.15312731899316973
-0.16240562354636767
-0.21255985952878426
-0.19862893130052584
-0.1650749369892442
-0.14535980558876604
-0.14749918978907905
-0.1677974669858285
-0.15402345871267745
-0.12375533382486009
-0.12192915449216617
-0.13853245843410766
-0.10769444601207344
-0.0912444320094595
-0.06879268619932555
-0.04358854752086844
-0.06920328027144441
-0.06660658025527276
-0.022105045584680766
-0.004610440939973447
-0.02037865061000367
-0.02998149716674202
-0.005497396515400529
0.02024725221103292
0.008598751362269917
0.030964534683057782
0.06694970126000825
0.06711677338137079
0.08417436817898463
0.11962431600734913
0.14369064567153816
0.16445175295550193
0.17897986016594578
0.17140222296841479
0.17450593188194075
0.19081575976049045
0.1678391450938279
0.13893408693395332
0.13683462165855997
0.13148483987130652
0.12028519601044385
0.11078865764658992
0.09206514699399945
0.06087253687760964
0.03738508550310869
0.02171933082328427
0.03464998746213987
0.012730710189131612
-0.0774403526869177
-0.1704547362154864
-0.2360227448680123
-0.2744566348914208
-0.311886606042885
-0.25790570225543974
-0.12228375851178996
-0.004176311760381121
0.051721699417697
0.026782934138700448
-0.012379088990608245
-0.05753002445354889
-0.08879781309523027
-0.07130485205800416
-0.0693630487869176
-0.07887800987275648
-0.05192812483543981
-0.04663659082685418
-0.07081003175143143
-0.05480715378211143
-0.012149932755766701
-0.005186482731477905
0.008816538067931298
0.04626872624270332
0.07005193208601208
0.09052785604765108
0.1111161932104015
0.15007981864956257
0.1700554778470138
0.18955064812647718
0.23439257003904485
0.23343140910335608
0.22368344512492574
0.2349262042256391
0.22628126955341593
0.1930602391433625
0.1530168541471994
0.13833820918605788
0.10211901717715657
0.04525333681221723
-0.001603851573978611
-0.07997381286972931
-0.12233751758275474
-0.11962964830026754
-0.12676066969071959
-0.13282955333127094
-0.1261164044295031
-0.11756699712750265
-0.13433542375970925
-0.13955341137611038
-0.13589903673201656
-0.14298736844070747
-0.13714047286004769
-0.1171893122637054
-0.13956701074203784
-0.17785365677297224
-0.18204567384124054
-0.2052838998863899
-0.18176260767206573
-0.0897254518048353
0.12321429529905656
0.4970159636591686
0.8852609854609894
1.239996872430831
1.4885687350986434
1.487059032064291
1.085275128769413
0.47745789858277865
0.08305138362987272
-0.0773897669427416
-0.11219836266239573
-0.08146042501203729
-0.06507527062319278
-0.08761154389101115
-0.12272623635254977
-0.1159667748929959
-0.10214955646131704
-0.12039367185944308
-0.12263470532755619
-0.10066878356020988
-0.09447634372397336
-0.14161133277458993
-0.1493097682237382
-0.09634450510002543
-0.07753920900832317
-0.07739498397397412
-0.08556294906199635
-0.07896843985467658
-0.04912951467203331
-0.04482755653699724
-0.041873030990848895
-0.01938615324746202
-0.0105441987768456
-0.0030378248782523265
-0.0012496004089501689
-0.0059220970465973174
-0.01986845343425864
-0.030537761633284227
-0.02795965997044509
-0.01115403350846672
0.0510938888103771
0.07335708156783562
0.06230359269447666
0.09103354509431519
0.1196745089408803
0.13113654304675293
0.12353517786275024
0.13304690449340556
0.15314795362070438
0.13061140192726725
0.12557638232169563
0.14068197882312564
0.12560268357474427
0.11063842719366901
0.09105621587350071
0.0681998990801811
0.05990044166233082
0.03969512003731751
0.019079384846875862
-0.0034154766994885996
-0.030465956527041656
-0.044028762696566734
-0.09383368936002252
-0.17971902272407356
-0.2565983216126435
-0.30106331640876466
-0.33960076265260253
-0.32871289862270514
-0.20742924089721876
-0.08209695383160394
-0.033663461066477274
-0.05798188811751172
-0.09876592279395771
-0.11767942918359042
-0.12258862220104277
-0.11976676464243612
-0.08928356641798163
-0.05740976174052767
-0.06768040706845185
-0.057613424033578366
-0.02692807098422202
-0.03385703680305037
-0.05046575896695915
-0.0316796359550899
-0.007533625227995326
0.012241128165835655
0.033357279895325526
0.025493375959454848
0.014206532063641981
0.031669132268891516
0.0465707671129727
0.04528621879842816
0.042496630917498904
0.03746582017760267
0.05761985883369228
0.089363615244134
0.1104182163915016
0.135193814254917
0.16162967323487318
0.19936183903248386
0.22767461616828388
0.24578095391131333
0.25775388897159357
0.2660829088903754
0.27152045960538246
0.22750441698609702
0.16514056449213044
0.12040216599570497
0.0972656493257165
0.06230730853338095
-0.001515054794651395
-0.03685435619014397
-0.07497468305342644
-0.1215430916256425
-0.1536833890252689
-0.14928084682331366
-0.1292256637146333
-0.14459212050791484
-0.1409707570597382
-0.121309750444066
-0.11293631535849229
-0.09879702978672285
-0.09712964329817678
-0.10053518385983512
-0.07258864197551891
-0.04165143140105362
-0.019618268096699802
-0.02603271621092667
-0.0604748732947451
-0.0208135916793407
0.15747033423426535
0.48691597833059413
0.9008545878591777
1.3204686347042016
1.7033690086788233
1.9392431064613616
1.7936682295094717
1.2370094182384825
0.6201529525916069
0.2004547457004056
0.02216897435427226
-0.008051873868774678
-0.002150261624371805
-0.011500214851727253
-0.040683965170775514
-0.034398627991228184
-0.05218664597878851
-0.091657106166065
-0.0920870178026781
-0.10347503686576928
-0.08513665778144791
-0.06697420037771423
-0.07161731364809243
-0.03270621529154439
-0.017652205231097604
-0.021226033504548547
-0.017166070421703636
-0.012154179247538754
0.010867656683594407
0.035124129353288965
0.032800351956929444
0.028833935285424765
0.06139264273573072
0.08065250629010072
0.07726357298194927
0.06311036790685313
0.07448320887108503
0.1065249781164614
0.07228498540965099
0.053687062067483304
0.08388158803497373
0.09110280733571512
0.12444224996389323
0.15738803160630327
0.16674505957824257
0.20111758713216313
0.22860552033076229
0.2323716844836237
0.22768844418616324
0.2520315651365912
0.28444020600738157
0.2647115880905345
0.24949330306027384
0.25751386282370436
0.24158142045927672
0.21301741741052158
0.20877915601761413
0.20506666542510305
0.17226197523195533
0.14568441041660463
0.11015669262204321
0.09047376780375474
0.06402249579922331
-0.01884468319310075
-0.0899544148015902
-0.1654506638309775
-0.20814242993921345
-0.21277910841684988
-0.1801970883636531
-0.040206118103671584
0.04786288139944359
0.034337426072069
0.008036235444849174
0.002849004609135078
0.020064018476255316
0.01932280167683023
0.02754275057597668
0.01864957801488939
0.030522231421426432
0.06826269173661638
0.08045397687275145
0.08824128000667
0.07450234707326693
0.08584138565875507
0.09696916562396848
0.09233783351965898
0.10367153655754467
0.08181683267072522
0.07390243581810789
0.0946209353836801
0.08145746959577185
0.06821552043449183
0.08944062914590059
0.06215339675691096
0.020096986840011932
0.02739522997751082
0.02187031516273008
0.019999530361193858
0.029637207841006666
0.04266557004882894
0.04334069633977849
0.019685366066614706
0.028865814917639787
0.05680414611208172
0.046672436165125376
0.04552377968711053
0.04250011531719596
0.03284545042600688
0.04326841966677325
0.026230659313512587
0.019763972447029647
0.005158468525905235
-0.01493524658461838
0.010186936557431539
-0.006923408691511701
-0.040501384874637475
-0.02208796039389034
-0.01784052046143393
-0.020703502533352208
-0.03469748412584403
-0.040722355989550915
-0.00640475091082518
0.006951398698149064
-0.0016859653230931193
-0.021560463016950845
-0.02671917940666746
-0.013818732909444464
-0.015762992250226204
-0.04470996478338375
-0.08185441079212255
-0.08486817174651565
-0.07037265551758866
-0.05567386212697896
-0.04713550596101634
-0.04640366123352955
0.032398667851121624
0.09496866400551365
0.0735915912398149
0.08749288915916553
0.0829814963347959
0.06734730341460157
0.080538981025189
0.09452912518568314
0.10187601085408848
0.07400121804908176
0.05861978970591449
0.07517776930757604
0.06385595300179839
0.052144528173951696
0.06606513799573303
0.06896945236789032
0.05864871726245016
0.0690567006143223
0.07769777173314577
0.06569648417524146
0.07722387568418591
0.0687209393773347
0.06040188016236451
0.07096978597167442
0.06878999679238845
0.07924052222846693
0.04571306256493363
0.02241832133056485
0.041033801241750295
0.034666912678172776
0.011084955447813558
-0.01217619591615586
-0.010300489335794954
-0.0015716893853861547
0.016488707458258166
0.030532547185368426
0.026019842013262698
0.029742129948486306
0.01646105756046525
0.012864757224911986
0.028185538964650904
0.019477383583766536
-0.0038623530102825324
-0.03814763775442019
-0.0509134298390578
-0.034533587720098215
0.033201312179081136
0.08841306840615828
0.06893984564409195
0.06847850736424685
0.06983685725654211
0.04899090010082325
0.04797125415366427
0.06339895763628337
0.052548843667311315
0.033573767301023516
0.0474721369465871
0.04829031494045858
0.028797215502710936
0.036177942260684715
0.03784627021109567
0.03239956782349875
0.027586721085852556
0.04583352015963937
0.09310317725830376
0.07964935877284669
0.07220561906399667
0.09030778629249278
0.08377617205561505
0.09665696931307063
0.11170425809175095
0.11294252458459286
0.11776016096273381
0.12551870183104608
0.13748488334928885
0.14497061422211338
0.1498122193177923
0.15983353254196672
0.15465435914096928
0.13704601745796735
0.12314858814842607
0.1236683466026899
0.11693511981219638
0.08935542827729537
0.061378710804467995
0.0448990814174924
0.03652760036669501
0.005333987440910348
-0.018730098140596015
-0.017906408044890854
-0.024382294528920163
-0.02652041664363487
-0.01752525847652072
-0.003951143301798632
-0.0015603878205892874
-0.004615196874666938
-0.0015975609040377453
-0.007584114496273692
-0.00998984573882735
0.06167479214969007
0.2642185435581813
0.5897556105306543
0.982699999896351
1.3476244797372898
1.6258804716400403
1.7625273178691316
1.5940399608616158
1.079408212204568
0.5004637910628381
0.13383487034927066
-0.0061730966623211245
-0.01852662680241835
0.0108215681046414
-0.0075880249605649215
-0.051895711194755015
-0.08098153995862764
-0.10157513669962277
-0.10858765338687469
-0.1409985114245617
-0.14407027106985326
-0.11904790779983881
-0.1382157565053063
-0.14606784932110314
-0.14341816223810788
-0.12645254610590603
-0.10443114350920021
-0.09834741519475645
-0.07813854626926628
-0.0686866737352187
-0.06474757945008977
-0.06670958399929304
-0.05785694376751434
-0.04730202410956322
-0.04652882850883856
-0.043350637897353626
-0.03747187924939693
-0.03616374235506232
-0.04791200988032558
-0.037832771408711954
-0.03953287366582086
-0.046117913540626776
-0.02970152775064084
-0.018992713581384255
-0.015222099783989852
-0.0005867035103286041
0.0351045156146271
0.06568108530749625
0.0309720873117693
-0.006177082761514886
0.042682486537309716
0.07692661797369911
0.05839072909098357
0.051138673486271734
0.06248351519282917
0.044183412369507694
0.022880528953274925
0.029257888875363815
0.019127351513349038
0.024624167458349756
0.021882762802663772
-0.011081042845400194
-0.02037712214483784
-0.056586982423645335
-0.13392980502527688
-0.2129464997606717
-0.2991121764392719
-0.35698338517726363
-0.38409081840991116
-0.3170475970438533
-0.17136933326950532
-0.08657035753891441
-0.062252274875783456
-0.0799350407608623
-0.11583871958974463
-0.12847613604061198
-0.11247567142210249
-0.13282950958344197
-0.14937287043576064
-0.1456323882450454
-0.16017268216185584
-0.13644535312058131
-0.12249234943940837
-0.1429035806936078
-0.15461276154775913
-0.1314768487969944
-0.10963251916751043
-0.11858653910312002
-0.13135135587516997
-0.13553769112379827
-0.1345786722776118
-0.14648291213400783
-0.14244725678382453
-0.12361554328067179
-0.1322514279591115
-0.13316598223799947
-0.11751986120713867
-0.11986707253016934
-0.11533471335828882
-0.10967716348177811
-0.13438778712843424
-0.1442049953863852