-0.058150818966676225
-0.041099174465115115
-0.04185897874433552
-0.057379664781970756
-0.05501053915455487
-0.04182962851873708
-0.04687978766957575
-0.05553069284227864
-0.07354485996572127
-0.08056876667753764
-0.07307014347154595
-0.08757287358363569
-0.09530975826989242
-0.07798917163098847
-0.06779550130878424
-0.0720110162646043
-0.08201294480146551
-0.08604035333262028
-0.08718342709928863
-0.08937065989566202
-0.08457646561553445
-0.09826142558429031
-0.10594088830891063
-0.09907807309572371
-0.1110751691674224
-0.09975110335058644
-0.09024016556538103
-0.11145127576436127
-0.10658704415467783
-0.08332615234187452
-0.07871089805204762
-0.07934878448921191
-0.08033844457782381
-0.09109570085231007
-0.0889911641972936
-0.0893826349409396
-0.09821154331468088
-0.08653373433878124
-0.08322501960602506
-0.09410775014430638
-0.09155662586059395
-0.09559564107850504
-0.09816288928676409
-0.09471964354156391
-0.0975996200011355
-0.0872458710684377
-0.07814871910287997
-0.06071922796868678
-0.05662809666538707
-0.0731119763700411
-0.07045089349560957
-0.071042136909031
-0.07460383551485558
-0.0750143821012289
-0.09314166222432994
-0.1008685537942206
-0.09772856981479615
-0.10828088951761963
-0.10612084528718185
-0.10557728824591696
-0.10806134855399799
-0.10760608286114515
-0.08768605657972413
-0.05199375831940944
-0.055778877620487076
-0.05592684985994273
-0.0406797101154761
-0.0366095916726578
-0.03662733811580478
-0.03746880563914887
-0.04338932898600879
-0.060864912152967694
-0.05822076829475247
-0.04389207009531137
-0.04651872583616036
-0.04738628203416188
-0.04059524541837044
-0.04852434132192552
-0.05085771262972906
-0.06451290584819182
-0.07622442834270964
-0.06767743985929829
-0.07137252835110776
-0.09643744581200447
-0.11283319380136766
-0.08062266059125982
-0.09383037805333952
-0.10909714333474947
-0.08865293189773062
-0.07173614387791999
0.0003940205007255909
0.08819923656666112
0.15607669745319167
0.16655001291529625
0.08942549385098554
-0.03771871653216081
-0.1345659706085363
-0.16771448426313712
-0.16382154598557533
-0.12753378978343033
-0.09538148691315784
-0.10161304369520108
-0.10656242108933688
-0.10331992101203892
-0.11134187499406639
-0.10323593141027253
-0.08470964983486823
-0.08058643419872241
-0.09069757350570118
-0.10020109122657969
-0.09781599755974005
-0.08790538232062546
-0.09563541838334272
-0.09548672954354664
-0.08920586370173457
-0.08888148128391654
-0.07772726473464613
-0.074546752091415
-0.07152826862319983
-0.07254249738681336
-0.07314679736109786
-0.06742970301766835
-0.0683589385376366
-0.06771558214490711
-0.05944377766164034
-0.041436160420543586
-0.046276975083343684
-0.06222691806846963
-0.03624575123522801
-0.01884110610951087
-0.026888383190995166
-0.026852522800946757
-0.019396072598269323
0.007162053140576221
0.008358153500846356
-0.015053706952884917
0.0029514257756340246
0.012002255698012223
-0.004974078953198222
0.004994927693269508
0.013188993846984841
0.0058938781572652026
0.0074581917113602375
0.022737567238468415
0.005659596564759124
-0.006804825737204759
0.012957658423593643
-0.011992268999242117
-0.029409859678375058
-0.01317767975053406
-0.0029135950718328996
-0.015005076297982114
-0.03683749033265122
-0.03671287269276695
-0.04299549776954258
-0.0514901630871616
-0.04239106647499253
-0.04239412659783161
-0.062745062375147
-0.0731178414409641
-0.06268198201922612
-0.061445285464569704
-0.05714491498430152
-0.04934632578366059
-0.057903120512021615
-0.08447064708505339
-0.09957336638183918
-0.09653129855961964
-0.10269131109586829
-0.08349643212424891
-0.08092992888929106
-0.09960313187178738
-0.06997480139442248
-0.05295683503961844
-0.07112344390685098
-0.07412772158463031
-0.0848570628443564
-0.07209774188084936
-0.04561580233048933
-0.07189056962450352
-0.08109393901695856
-0.05691730543487067
-0.038195991106342024
-0.026963046991898814
-0.025224828682808603
-0.03291877290948545
-0.04220403333544333
-0.04367522979186012
-0.04455672892832303
-0.03978672153022975
-0.049061046551074405
-0.055577146292016655
-0.044040384533083024
-0.04790236366142861
-0.055717265301475055
-0.046659994889553066
-0.03994901694569013
-0.0353365188821049
-0.03306200632444479
-0.0328958126426573
-0.02101065617269934
-0.033532895138624036
-0.04518687703708651
-0.027766417301846515
-0.0362941874057895
-0.04839446456147651
-0.0332392471149102
-0.04273188334393271
-0.060830493536971
-0.05654692685740163
-0.04996967936364467
-0.05299061442774161
-0.0427975824585723
-0.029311063875907626
-0.042422709871994514
-0.053903525696920945
-0.05858713429696954
-0.055231906905441955
-0.04468759750509537
-0.04783218957943763
-0.05735658203826079
-0.06189329800303131
-0.0747280793492992
-0.06337590572334621
-0.01670822355434046
0.054398552343082746
0.1292916295611535
0.1763376674731878
0.20104777293394105
0.1252618887232228
-0.01908559825276654
-0.11703846670031637
-0.16003821217986336
-0.15002518500358977
-0.11997948546361353
-0.09328821356175888
-0.054939173315058994
-0.0386419009702609
-0.04039585091816357
-0.029208525715594402
-0.038764679860486484
-0.04561338256233214
-0.02695841681574862
-0.025158950975283242
-0.04639099085578231
-0.052052006585173845
-0.05336828459194341
-0.04765079256480017
-0.03593402297885132
-0.033886216039459086
-0.017471912059093465
-0.017272169771822044
-0.016658654096649753
-0.01787937199362085
-0.03981104702272025
-0.0363092760248172
-0.02781666496555582
-0.021080875179037305
-0.010690275044705908
-0.009708349127479877
-0.005407390254355614
-0.009760723863431712
-0.015489169288797339
-0.01051746697352675
-0.0091619424016794
-0.0004928276459737989
-0.005969298245570664
-0.01047620959888123
0.009414428048191634
0.007085296007722128
-0.009340622587723921
-0.008560966254183323
-0.00021803401812052698
-0.005210025231376122
-0.00010876410951883228
0.0068153453256365945
0.0004117560468610222
-0.006485746238091132
0.01929622192583572
0.052533400609336284
0.04217072605959631
0.03590039480928604
0.020990540794594944
0.019614092829972254
0.025404783725734674
-0.0017082999520325825
-0.014960125141071305
-0.03538216463425753
-0.0424098321970642
-0.03619608519850427
-0.04907015839644009
-0.037254083024772705
-0.02754039430207613
-0.02823530570638555
-0.02765370320017875
-0.0345902178980431
-0.03301890281379924
-0.03710693193872887
-0.03427626256690118
-0.051143628061075634
-0.07155807691222499
-0.06213869794543122
-0.060445475003267475
-0.061981097529317394
-0.05825394968606555
-0.03068155625925151
-0.020681222698886403
-0.03404985256053845
-0.046661792458771036
-0.05821499645658059
-0.04894077410808001
-0.04651418423656901
-0.05556661602364631
-0.06722366383925088
-0.06839856614349508
-0.06070140429432518
-0.05830710459387647
-0.061985424727555236
-0.06378090650096173
-0.05165908465709501
-0.014333666332059649
0.007188954815155454
-0.0005985571565232725
0.0005093035393534146
-0.022836213422018525
-0.03386132695565626
-0.02632120132147
-0.0381237030300513
-0.03675888797699869
-0.027230937414149385
-0.025481697333208722
-0.035742078025756276
-0.03805744903935849
-0.023294565728336915
-0.03724632161646507
-0.05421626633535635
-0.0376297142375207
-0.03844978545386353
-0.041296670590532214
-0.03152212762881201
-0.03744082283474112
-0.04123294940105203
-0.04313542404181686
-0.04416956026712972
-0.04529764619747038
-0.045220418103295176
-0.01391691178373719
0.0453173438429047
0.11524586608769366
0.17005039979974904
0.20115672635257606
0.16286190814770563
0.037832130657092775
-0.06272439112806495
-0.09653145903214616
-0.07930169058269006
-0.03972770064273726
-0.02184760537962826
-0.020605223302196135
-0.024618572687175502
-0.0333008887738092
-0.035766435408604816
-0.035602268620418306
-0.039575660579860276
-0.042646031089073486
-0.036061444114794616
-0.02588232285025355
-0.03254238822893262
-0.03245108503455476
-0.032594129529680604
-0.04878959411088101
-0.05275277880982899
-0.05089693362487471
-0.055558035309659075
-0.057561671976023784
-0.05842566954722108
-0.05694887787498224
-0.046559638088029806
-0.048559294249253544
-0.05499051955060823
-0.04860566138742687
-0.031016318099484234
-0.023168924103780568
-0.03307555157125405
-0.027112965450105938
-0.025519583309792353
-0.025358741253997483
-0.013553538688640445
-0.006993330423995301
0.018638293043513145
0.04488444347993088
0.05740806606633462
0.06244176978428907
0.05330318813402558
0.04347497008653675
0.03411573542834882
0.03582074738530624
0.03177519645798684
0.029402970400216014
0.02888433135366406
0.02083190990205138
0.022235787822106525
0.017268033426564734
0.008286121123536718
-0.001912195007112569
-0.015778421744912827
-0.02051195873529981
-0.01558824297993592
-0.023372635197779504
-0.03582028243429077
-0.045822023810968095
-0.038901135779918446
-0.026107013641539684
-0.03846219368710283
-0.0425358886864702
-0.047201255679893826
-0.061788448338551044
-0.06076299961476293
-0.056631675852815026
-0.06939588205136205
-0.07724684617152416
-0.0678920597611015
-0.06569001688750373
-0.06385163551156813
-0.06618108020497854
-0.06527593396174121
-0.0526704108933965
-0.05430773208078429
-0.05577380550984782
-0.05307887252033837
-0.053183655555978995
-0.048108225616419684
-0.05275413502194844
-0.052342429715679796
-0.053555774698248904
-0.053678327701105165
-0.040836035318218056
-0.058444680467061826
-0.06385001889608426
-0.052476677734573554
-0.06491522400361564
-0.0728021041187292
-0.0739929770516494
-0.07331279946627077
-0.07887645948599271
-0.08655856211119792
-0.07725091400995727
-0.07060738128992827
-0.07547364041810593
-0.05795333362189325
-0.053119221718587024
-0.06074235990382714
-0.01440050491737133
0.0010988003903821073
-0.021648804986632908
-0.02006016240991096
-0.03654412144651607
-0.03269082323825574
-0.024658558683902303
-0.03714684226837692
-0.03539851802929014
-0.048777509394396866
-0.04938180100384681
-0.04835476451329779
-0.05918455625019356
-0.04011922509580376
-0.038742707938263045
-0.04871205892627073
-0.0397943333691492
-0.039150517050638295
-0.044565675058512666
-0.046428110272523984
-0.04287408753922738
-0.03987633098219108
-0.0304130403292472
-0.029528843444894922
-0.015551424831663984
0.03762640046133845
0.0951286818128339
0.15969721973698534
0.18393112400461248
0.18217582394651355
0.13685126768609618
-0.004236910033569335
-0.08784550398931573
-0.08488527196293791
-0.06300902981958807
-0.0535600208746377
-0.06352444942433902
-0.06416659008904174
-0.07000878960490313
-0.06066406460198905
-0.0559773134500391
-0.06478281564387806
-0.07161966414263923
-0.07540902966070688
-0.05534684383880131
-0.05069110345656532
-0.05874655256143737
-0.05613442952522655
-0.05415542061866965
-0.04979034182208824
-0.05177648762714834
-0.054893077265326974
-0.044148504344840606
-0.03751112848546445
-0.04871396832639569
-0.016637525868522927
0.02237360521248167
0.021767901271571116
0.022885486833297615
0.016539870975596723
0.011197927463420146
0.0014437657612396556
-0.004760064890565967
0.0026071878443878023
-0.007225091403081147
-0.013244687525905744
0.002901473452612372
0.004691659530145805
0.015206359155743296
0.036387552316088256
0.04363810997079488
0.052296610197572056
0.058175654444676185
0.07648255455156819
0.09042017325887679
0.08083947762967408
0.10224255392329573
0.13600216846072294
0.12822138314672077
0.11642812282617392
0.10946042213487411
0.12293483281695138
0.12887362237887823
0.10517815821090828
0.09485051162913508
0.09922512659383254
0.10932668218898582
0.10241553799067328
0.09472722156723368
0.10223971792868376
0.10787590111599292
0.10476730924356267
0.10391056441273824
0.11023613199218657
0.10629204966485345
0.1021478451823902
0.09825249634766765
0.013808507485158257
-0.04622018546918889
-0.024895720072528587
-0.04104453793775793
-0.03892835679534483
-0.02880775448277633
-0.03854694654144634
-0.036582592608917816
-0.0362512972806626
-0.027093809281581952
-0.01703759872383298
-0.02478087980121665
-0.018317881464225794
-0.00033910190525198813
-0.00036433392615579853
-0.007466793751780305
-0.0053598621129540055
-0.004401955713584774
-0.011220499115982219
-0.007087471504914226
-0.010117556831239416
-0.0037248200537446036
-0.004252088585410328
-0.013500306264496454
-0.0012437783327460077
-0.008396991655500138
0.001932906531266394
0.01585039033213055
-0.0003571144734611561
0.0022589587692505853
0.012776069085519273
0.02164887749153631
0.027696177039908065
0.02180291359243186
0.009535993923034764
0.008358835196136862
0.011096609074321464
0.0013036277099065826
0.003052471568460309
0.004809990546637048
0.0002970395138410229
0.0037675474500026927
0.012505908347600094
0.022674892680701417
0.02322465895892706
0.020303675766042358
0.019392451035931842
0.023358621829980393
0.03424677341024767
0.036254924665936376
0.03566082915085886
0.04749203722904651
0.051054190857012016
0.04809877383863837
0.05699597589053107
0.056527602239969096
0.034659869033010146
0.030708254847019938
0.04645891466058171
0.051053972900383424
0.05874467668993606
0.05780091667936076
0.05226239874362526
0.024900139426395594
-0.012788576587382255
0.00010234795614618526
0.00530784998535277
0.0036136279344950667
0.020778750077787147
0.020514272352351804
0.013282883622407185
0.010239121616280772
0.013173087141186117
0.014640968219168257
0.010469688316796837
0.013433832707170934
0.00450258397179208
-0.014791600388781455
-0.010313733553297585
-0.004266334886325016
-0.0073918973690550675
-0.006193641337229405
-0.0066917645557115985
-0.006613986400600295
0.011246504938892619
0.0354624949774777
0.037655854453082206
0.03763729042966957
0.040835720761944555
0.05324256463208735
0.058559657676729486
0.048096046646550414
0.05511870332120426
0.058138032119863195
0.06497100126909912
0.07294444620780494
0.06331468023729434
0.05678586111505457
0.06138774832646961
0.06505013580563174
0.0660846080497645
0.06367167218596279
0.046505709629750515
0.042454063100221755
0.04893622486029676
0.02219910991194088
-0.0021622469558020907
0.004619912246902824
0.00031808833180738095
0.003346845155580969
0.008854566058898174
-0.004443142385285456
-0.001850744309117925
0.0037788667101375396
0.011449378313388655
0.029686711756105398
0.0276108452032939
0.026477718244979898
0.045472724676406465
0.04546576812444692
0.04115025494370132
0.04903971136227713
0.03624767853390325
0.035247682182977885
0.04306859982387519
0.036884723948689864
0.019771441824640357
-0.0025293830304951074
0.0013189342710819487
0.005843282999200015
0.0035977876770687694
-0.01020984832952956
-0.021276680016520864
-0.010743168460450769
-0.011265913916636693
-0.015860827494986966
-0.007260576711779651
0.004368432433628183
0.005447717802221749
0.013533257516537387
0.027474530199725615
0.01912878377930553
0.011517718578253369
0.017937393014715627
0.007197894870008205
-0.011957948221417356
-0.02184535814142969
0.01364018889204669
0.04657050217401514
0.01796287717095742
0.00508268897102598
0.00981899553116727
0.0013159228978265785
-0.003778906823119319
0.006489619556647206
0.006166267704035476
0.0006046831818823718
0.011086845856642625
0.010610857525291784
0.011997832314117645
0.016759845144734765
0.011320397620133997
0.025580733565021274
0.07912942473323349
0.15132676955403537
0.22279968003298364
0.26691414007421316
0.2854607344357618
0.21175964777778392
0.05649744512022635
-0.03360926676242687
-0.061154234507036
-0.04704244782729464
-0.01878992142650936
-0.013091148760807594
-0.020042334770337178
-0.007709792072983992
0.010489825791844274
0.016890200204229794
0.02196333511989517
0.007933430129892166
0.00017494879282531264
0.008804589623771694
0.010454536855132885
-0.0064696520161213935
-0.0117267669085944
-0.004672013045215612
-0.0030887054896450972
-0.0012201541462271898
0.00536126205655156
0.020462911447025226
0.02397956790082876
0.018386100009007058
0.023361120465569953
0.03529652453546117
0.04090809657249087
0.03768643691758027
0.027812483775712913
0.03224350984794002
0.0541634018102384
0.05385116520242092