-0.10620888009584156
-0.0713611226579386
-0.07035826832205269
-0.07140526851877221
-0.06813441322695192
-0.1436580982564926
-0.20507841113435063
-0.1567810742134765
-0.15852878197138418
-0.2108615282241255
-0.2490510498066661
-0.2903750345998526
-0.30225182216671487
-0.27897420855471006
-0.27522721111916826
-0.31342276842399835
-0.3030976929663494
-0.27005151767534225
-0.27764638099109573
-0.2724020249144589
-0.2780735704916243
-0.3056880269148355
-0.2788375158119116
-0.242580420355971
-0.23517594059653665
-0.18497583757628816
-0.06701043732931598
0.1617573489327766
0.4767218282690801
0.7309299148503091
0.9387874892247559
1.093161617462149
0.9625898767192694
0.5463821598020862
0.17935292739884962
-0.09737569777661656
-0.3293324214084368
-0.38261346952688746
-0.3714329178011477
-0.35797828970652357
-0.30408235577390946
-0.3145038056110315
-0.35127784826949815
-0.3255849034496774
-0.2932177555527684
-0.2928688602073405
-0.3183145250964089
-0.33931291244151596
-0.3359582158384882
-0.2917251310895846
-0.2564424550630173
-0.29431657947168577
-0.31971355611690605
-0.2981508399841049
-0.28178927402601506
-0.25370810223537654
-0.24927489320264304
-0.23630004457572193
-0.20178996026909227
-0.22144820879313354
-0.20425974776777006
-0.20949257924804068
-0.2639142375229029
-0.22240485890983808
-0.21549682430473627
-0.23597094224866272
-0.15373877116411794
-0.1260267797676761
-0.1506437643448552
-0.13617992959323313
-0.1402698611820231
-0.12549608878898352
-0.09823330622983603
-0.08864512426167287
-0.0915338010200092
-0.1080237505484278
-0.09996452240726998
-0.0895182011720591
-0.1207124704220697
-0.14483923364305948
-0.11144620180572168
-0.12186868639168007
-0.16064149187819743
-0.14703832336458075
-0.1494407378819101
-0.21468790190274364
-0.2833952900987363
-0.2645823867857802
-0.23652977628679833
-0.2489618764340423
-0.22959525916464377
-0.2505227320684334
-0.269042171765527
-0.24406481571143937
-0.2763925907039531
-0.29100819296870967
-0.30076405572635023
-0.31680788178217323
-0.28571731057541205
-0.31154600759575646
-0.3103738657327085
-0.2541113126579374
-0.26449466597027005
-0.22846878643489285
-0.21608868231737974
-0.3005949418719755
-0.2844230551862044
-0.20963736161672342
-0.17832650751992932
-0.16642680612714317
-0.1950087006073904
-0.22148412669743425
-0.18709426318111033
-0.18455626474189601
-0.194429676428787
-0.12773316108519298
-0.10738875046735294
-0.11934962586851959
-0.14759107953645847
-0.19088558719479404
-0.12197039094408829
-0.08422482090012542
-0.18583074862974153
-0.24060071265660296
-0.19726836953504848
-0.1880849865798077
-0.1573443641543282
-0.13211129262844792
-0.1659025114173302
-0.17356724918918642
-0.1561679657180664
-0.11312809352816529
-0.13628544674389229
-0.12098118531309336
-0.012213789318846282
0.008506257725601677
-0.026294124757662057
-0.010958807513603022
-0.004527890845170618
-0.07362544517925344
-0.13446949469052497
-0.15281430801113766
-0.1549318566701544
-0.1768767251731976
-0.22006131984980462
-0.25722852939153895
-0.2778605150278106
-0.2784043755853369
-0.2814500710739971
-0.27597001702617396
-0.26060657420609845
-0.24886854187845275
-0.26488456785972236
-0.2897281878746264
-0.262353268759434
-0.21128302074318428
-0.19602261839698565
-0.19683118376353778
-0.18157933179284658
-0.15735005994484827
-0.11435898630724856
-0.0424746615682649
0.1670809770476184
0.4820040413913006
0.7222587747182114
0.9680546576445297
1.1736128811290287
1.0810549738757878
0.6917367183375158
0.29942810820658505
0.034428331847870544
-0.19349259629281662
-0.28010265252947614
-0.2622160976319893
-0.25887350298721
-0.2452428064010912
-0.23798438183752613
-0.23450336542721703
-0.2581756618592736
-0.27051950092502935
-0.24616887600620277
-0.2022771110236367
-0.18569518089542109
-0.1947605139777273
-0.17924828739548604
-0.15667410673434554
-0.1641331878276095
-0.18220768822596778
-0.15225117494039647
-0.13103115353968925
-0.11785373275039995
-0.09916569381288509
-0.11324366480452744
-0.11450894391670137
-0.07782231088615582
-0.05127043582952651
-0.0603276675556938
-0.06531801604884692
-0.03855940283984532
-0.01264856043162438
-0.012411904810429423
-0.002568360455566255
0.02176282422292174
0.03935035607952428
0.04788018077319513
0.07122985144587263
0.11045139855662796
0.12171986961156922
0.11814936662897477
0.11485529611101315
0.12453625251829609
0.13782514533274884
0.12504156263525562
0.1096230230580457
0.09441191178656545
0.07758131417438557
0.061698061713474306
0.055556750741147964
0.04737754948890408
0.013040347298172012
-0.019971496535152098
-0.04017396717974704
-0.040078091887159335
-0.0506451955342146
-0.09414857624125815
-0.11605618387240366
-0.1067311153068588
-0.09811896741823298
-0.11083883310894392
-0.13264381353221694
-0.1413693567645565
-0.12121477846069749
-0.10831651276216636
-0.12324225086488932
-0.13235857445422178
-0.15081823801530778
-0.14373698641028926
-0.10994675302826507
-0.10975889970508117
-0.10808653558835088
-0.09069280469592629
-0.09224997338918632
-0.09776844856718005
-0.07996610475739467
-0.058540923611549014
-0.05723848931665175
-0.044551746524012115
-0.0013820663220968504
0.03411790910716076
0.056641640008191996
0.09364428115130803
0.13280764887774052
0.15339682375036406
0.17167127613285632
0.1945815230163246
0.19712213307853887
0.19586678015936992
0.21384532904660178
0.21559099450871003
0.18335189001588265
0.1476094638928438
0.12857748532262617
0.08662984788835923
0.03473586983869048
-0.010765793975658012
-0.08046664051570311
-0.1283068158283254
-0.13010585789914877
-0.11734624164252795
-0.12574425732354882
-0.135457027017227
-0.12612796338168597
-0.1345534577778298
-0.1447634366074865
-0.13600780084153538
-0.13617202311507087
-0.13672871681318666
-0.12367505850179653
-0.12027078881620212
-0.12532025616363596
-0.13987494778164422
-0.16938350507710387
-0.16077206687747078
-0.07011135897486304
0.14861907902479124
0.495307663707136
0.8703008603199182
1.2046147077965734
1.4461589029015791
1.4508629468657865
1.0362049703729728
0.4402038155580059
0.05551098932779659
-0.10562507264912716
-0.13985206586257448
-0.11605064291008038
-0.09809417343699202
-0.12471847582974002
-0.15700249891945095
-0.16711040295407154
-0.17370763337354203
-0.1825323698048743
-0.18308018033082366
-0.16264988108952727
-0.1527302934100389
-0.17229288903384143
-0.1699909909226246
-0.13039435766056387
-0.1242010014670942
-0.13560998043055472
-0.13450372317007636
-0.12548262409124558
-0.10469613069567962
-0.11205122037624812
-0.11027159713434398
-0.0800875575417872
-0.06885130337072207
-0.06502324960580756
-0.0650305069099119
-0.05758118170369233
-0.03420211976631829
-0.023348806818128773
-0.028558217126968363
-0.010644729969113306
0.028257675388358574
0.03949575461217936
0.03598239137300666
0.052909842064263884
0.08291562096388161
0.10390560563260355
0.09805348052954152
0.09730482646764929
0.1150905045813459
0.10731683619893033
0.08833006070523056
0.08646571248776928
0.08797296933722357
0.07218864173980548
0.0497595452829685
0.03667777145136909
0.0224596188275897
-0.0015378293637345192
-0.024056039194941
-0.04758503696661832
-0.07576360272451203
-0.08924918079986191
-0.10775060114375971
-0.13440167888116886
-0.14135245552494988
-0.13101291660901562
-0.13844403630002644
-0.1658509904749995
-0.16959711024012597
-0.1448213449596689
-0.13019492009862343
-0.13728357870020177
-0.13849362343669497
-0.1395270345632187
-0.1431938455032389
-0.14438533732961162
-0.12258445519179083
-0.09317619714913249
-0.10328267568887016
-0.09718908461343864
-0.06957410207329551
-0.06991848091784499
-0.0763480818172127
-0.06422202418402252
-0.039984710262550086
-0.02035300136384495
-0.015432314215555486
-0.02725940285037414
-0.03669040156123273
-0.02388890304076756
-0.010990904863051085
-0.01313945074879292
-0.014452246957483336
-0.009093817910427134
0.009060564584438734
0.03437309569352577
0.06181255500407472
0.10417749615543276
0.1384607491310926
0.1662862874612298
0.20056165071817794
0.22026137060152098
0.2323951477175961
0.25252937020173494
0.26452712918138716
0.24614271002961016
0.2100250079720613
0.17781023206203958
0.15970741911000558
0.11561049666740653
0.04195991529188536
-0.002738620761795146
-0.03915393566812021
-0.08976789516765567
-0.12428041862505289
-0.12039651546964959
-0.10839375381258191
-0.12235633268580831
-0.12370272363317344
-0.11302362932052928
-0.11484851036560485
-0.11457545153163567
-0.11764160203347658
-0.11612342683977103
-0.09596127717329841
-0.07747171383534439
-0.0654402919076679
-0.06493385199084512
-0.08658188693628478
-0.05927578536644353
0.11493444554779514
0.43971472265070033
0.8390661395206267
1.2597056350894387
1.6467373328260084
1.8698472244099995
1.7164213833379476
1.169117358477381
0.5544629357041031
0.13660311018883747
-0.04401210585070628
-0.07332780783051589
-0.05482067251776831
-0.06580794693251155
-0.09645777068062333
-0.08747750051156655
-0.10537030153476751
-0.13976533178248468
-0.14484115282462653
-0.15581746658144907
-0.13869243247969681
-0.1206525280788194
-0.11245334896631048
-0.09115089575860622
-0.08150222412718186
-0.0737027112391221
-0.08208129442531928
-0.08495628336626795
-0.06312532036805499
-0.038188670112981805
-0.04607610752906327
-0.05772462682577315
-0.01585827127422656
0.01004512500017245
0.001789932563843344
0.00515703428495989
0.02136398715249801
0.04578261821263426
0.057884480492279664
0.05478586245786541
0.06223278304834081
0.07104264492580416
0.08789812851737716
0.12469720836804751
0.14208650089434027
0.1639707448637862
0.19320700230147214
0.18359417508922682
0.17830664318231643
0.20367680062329338
0.225255649757188
0.22459236299473073
0.2107505951220108
0.20880180389743364
0.20178708709012752
0.17386690035988328
0.16421348095910146
0.15863855515257905
0.12938788769272794
0.10580807943441353
0.07974365229279601
0.060944924358859814
0.04847107096755932
0.0187817172682377
0.005174267011243716
-0.005753444093992183
-0.024211305934600972
-0.03060328447033634
-0.04334582067755695
-0.04444302813724092
-0.03998262258987214
-0.05054784589086891
-0.0549727943747389
-0.050711016265502624
-0.0434604309480837
-0.04484378841221151
-0.04246603902892645
-0.042014486587099664
-0.025455082028612665
0.0034798760927383294
0.00883431273011222
0.012832250345963116
0.019155503234465618
0.03515028220218974
0.03822261306253111
0.03620340399443243
0.04951611593887502
0.03202649084863698
0.02212594819095955
0.039727858118353124
0.03730896525093125
0.03070439194902739
0.04072666081950489
0.04551587088838803
0.0424705920524936
0.049163131249081934
0.044755801996027696
0.03653940133679058
0.04083513530442681
0.044109335810068595
0.03858063144921252
0.02229255391100251
0.02164072351455864
0.04355945858617597
0.04957390961773775
0.05021543921725633
0.05770647447293926
0.06923300274209514
0.08690652963756813
0.07852726951108464
0.07793962689170583
0.08164102307747342
0.0754849266742584
0.09102641418710562
0.09531914523178403
0.09550078358608546
0.10613342275283043
0.09858760236473998
0.0887569196015219
0.08823734869110735
0.08815126638932731
0.0987734073000831
0.10180191032728414
0.09753916127073942
0.08776621917203498
0.07569635858400582
0.08090848865778921
0.08647672567845756
0.06316593633260917
0.022912898451440115
0.019042392666222593
0.03986347647459791
0.05061818753787449
0.055012339221373864
0.051848835114138105
0.04620717533627988
0.04874847853632476
0.04869587116728631
0.0464483512214076
0.044053139539451065
0.03853954893182525
0.041992034483742655
0.057946532576765325
0.06562471357342589
0.046907408767499804
0.04158219098208151
0.05039688950635939
0.0455380715375726
0.05180542626869971
0.06570080406957723
0.061502658616110005
0.053288855149496155
0.06465474490073753
0.06647727261716355
0.05860901267032723
0.0671063188529465
0.06499611932359009
0.05614979157695418
0.05746947970717796
0.06754621845964244
0.0708435305729668
0.04764596909620003
0.0382687116626954
0.04067668676828914
0.03692587144742336
0.02386102453333283
0.009472681575380448
0.01739568770411311
0.020231224207045706
0.026024701381292932
0.03889138238150529
0.037116451087584164
0.03104575765839289
0.019513529128925556
0.017674747771549034
0.028482578478491928
0.02324493103376923
0.008643555337317562
-0.015472745073718774
-0.027688770880130737
-0.014229911954055856
0.05259376321501298
0.11177169023613867
0.10318661905433962
0.10473343203018322
0.10549768640740097
0.09648293732986976
0.09902544501067628
0.11149773147492173
0.10954481955784239
0.09010136954099261
0.08213200597959724
0.07899856978747852
0.07525613016329265
0.08723191516106814
0.09659094690103173
0.09020048450285952
0.07984911982947782
0.07073365958603496
0.08031460067092151
0.07975170672899287
0.07751346904934944
0.09392141422698785
0.1045549221334022
0.11717124166542243
0.12498714171415815
0.12318164620087363
0.13093324810391993
0.14015967005021432
0.1479545716660857
0.15840444692928432
0.15431480328958436
0.14504193215318525
0.1443406255876717
0.13277968257164233
0.115756690779371
0.11747470526546049
0.11024335525648478
0.08274144187669508
0.07262521574336062
0.0803615763949701
0.07418345481977721
0.042971277870579916
0.02210562262134854
0.03533615658719649
0.03417736314780932
0.021575630002915545
0.03759344484468354
0.05418688881806456
0.06341061344850983
0.068329249333138
0.06171711933325659
0.04920174661878088
0.05139790258764226
0.1267249279553218
0.3303031516079458
0.6534272827166171
1.0292057095261016
1.3900785428375115
1.674816696500337
1.7847264277810726
1.5918777139058138
1.084028124451471
0.5007818793946455
0.13718171550485164
0.0026814693965770495
-0.02296976918770381
0.008970823795523475
-0.003809158250427382
-0.040446332881366356
-0.051294828202522236
-0.07396429149632887
-0.0821099351418948
-0.09552578674815525
-0.09860450294540633
-0.07789765285613749
-0.08917604514302915
-0.10982017078719988
-0.10817048005513001
-0.08338394628203084
-0.06754641956051036
-0.0785759733701161
-0.08066792929976138
-0.06736773946413675
-0.05890429645088975
-0.06311179632222427
-0.0680667920970439
-0.06857870412608408
-0.057271996969289335
-0.05461655181399032
-0.0533327067443839
-0.04342431906684197
-0.0435435774466974
-0.0323850536064902
-0.02599961614928347
-0.018643383340901157
-0.01057274397133531
-0.007474995003130888
0.002715293230725775
0.006611191359679601
0.02314656739320975
0.04383572716606657
0.04461227620381599
0.040393419412500256
0.06064536370826713
0.0820093069447251
0.06820972462215084
0.052454596384098315
0.05870460836970985
0.050673031926154896
0.0290467966573104
0.029862572057246187
0.030214197369991664
0.03523502498364154
0.03388059511678142
0.005678802299334572
-0.009056724524703843
-0.031006248858624064
-0.05480038029204339
-0.06161973020663634
-0.07631249640628827
-0.09006924510305049
-0.09863008397414935
-0.10528794926606938
-0.11487188814927896
-0.12017962430134128
-0.12340650938281945
-0.12697748858815694
-0.134628641016254
-0.14156728480141956
-0.13251800619243967
-0.14053930165642597
-0.13888304464391638
-0.1287421880408156
-0.13820934704196067
-0.12851192299068914
-0.12231740064658306
-0.1340989910698361
-0.14415822469262624
-0.1379465008131158
-0.12135928607610483
-0.12325855214833563
-0.13444006136481507
-0.13675784527002546
-0.12921741022106026
-0.1260200006869826
-0.11846768888299578
-0.10522944327166472
-0.10889030749354153
-0.09786945770253828
-0.0766117646346478
-0.08218063561258906
-0.08752222958257591
-0.07743365363383808
-0.08022438531819584
-0.09035383018396427